,EMG_s0,EMG_s1,EMG_s2,EMG_s3,EMG_s4,EMG_s5,EMG_s6,EMG_s7,timestamp,signal
0,-3.0,-13.0,0.0,-1.0,1.0,0.0,1.0,-1.0,1651025011852316.0,0
1,-2.0,1.0,-1.0,-2.0,-1.0,-2.0,0.0,-1.0,1651025011852316.0,0
2,-1.0,-2.0,-3.0,-1.0,-2.0,-1.0,-1.0,-1.0,1651025011853253.0,0
3,2.0,9.0,5.0,4.0,-1.0,-3.0,-2.0,0.0,1651025011853253.0,0
4,-1.0,-8.0,-1.0,-2.0,1.0,0.0,-1.0,1.0,1651025011866285.0,0
5,0.0,2.0,-2.0,0.0,-1.0,1.0,-1.0,0.0,1651025011866285.0,0
6,0.0,-16.0,-5.0,-3.0,-1.0,1.0,-1.0,1.0,1651025011873299.0,0
7,2.0,9.0,1.0,1.0,-2.0,0.0,0.0,-1.0,1651025011873299.0,0
8,-4.0,4.0,0.0,0.0,-1.0,0.0,-1.0,-3.0,1651025011889438.0,0
9,-1.0,-1.0,-1.0,-1.0,0.0,0.0,-2.0,-1.0,1651025011889438.0,0
10,1.0,-2.0,-1.0,3.0,2.0,-1.0,0.0,0.0,1651025011891402.0,0
11,1.0,4.0,2.0,-1.0,-2.0,-1.0,-1.0,1.0,1651025011891402.0,0
12,2.0,18.0,-1.0,-2.0,-1.0,-1.0,-1.0,1.0,1651025011911925.0,0
13,-1.0,-8.0,0.0,1.0,0.0,0.0,-1.0,-1.0,1651025011911925.0,0
14,0.0,5.0,0.0,-1.0,-2.0,-1.0,-1.0,-1.0,1651025011913920.0,0
15,0.0,-3.0,-2.0,-1.0,0.0,0.0,0.0,-1.0,1651025011913920.0,0
16,2.0,3.0,-1.0,-1.0,-1.0,1.0,-2.0,0.0,1651025011926888.0,0
17,1.0,8.0,3.0,2.0,1.0,-1.0,1.0,1.0,1651025011926888.0,0
18,-3.0,-5.0,1.0,0.0,0.0,-2.0,0.0,-1.0,1651025011932876.0,0
19,4.0,23.0,3.0,0.0,0.0,-1.0,2.0,1.0,1651025011932876.0,0
20,-7.0,-20.0,-2.0,-1.0,-1.0,-4.0,-1.0,-3.0,1651025011949890.0,0
21,0.0,-2.0,2.0,0.0,1.0,2.0,1.0,1.0,1651025011949890.0,0
22,1.0,2.0,0.0,0.0,-1.0,0.0,0.0,-1.0,1651025011950820.0,0
23,-1.0,-3.0,-2.0,1.0,1.0,0.0,0.0,-2.0,1651025011950820.0,0
24,2.0,-9.0,-1.0,-1.0,0.0,1.0,0.0,1.0,1651025011971831.0,0
25,-2.0,17.0,2.0,0.0,-2.0,-1.0,1.0,-1.0,1651025011971831.0,0
26,-3.0,-1.0,1.0,-2.0,-1.0,-2.0,0.0,-1.0,1651025011973759.0,0
27,-3.0,-6.0,-3.0,-3.0,1.0,1.0,-2.0,-1.0,1651025011973759.0,0
28,2.0,4.0,-3.0,0.0,-1.0,0.0,-2.0,1.0,1651025011986769.0,0
29,-1.0,-17.0,-4.0,-3.0,-1.0,-1.0,-1.0,-2.0,1651025011986769.0,0
30,-3.0,11.0,0.0,2.0,-1.0,-1.0,0.0,-1.0,1651025011992776.0,0
31,-2.0,-24.0,-4.0,-2.0,-3.0,-1.0,-2.0,-2.0,1651025011992776.0,0
32,1.0,1.0,-2.0,-1.0,-1.0,1.0,1.0,-1.0,1651025012009841.0,0
33,-2.0,-14.0,-4.0,-1.0,1.0,-1.0,0.0,0.0,1651025012009841.0,0
34,5.0,13.0,4.0,2.0,2.0,2.0,0.0,-1.0,1651025012010776.0,0
35,1.0,9.0,1.0,-1.0,-2.0,-2.0,1.0,1.0,1651025012010776.0,0
36,-6.0,-17.0,-3.0,2.0,1.0,-2.0,0.0,-4.0,1651025012031641.0,0
37,0.0,-6.0,-4.0,-3.0,-4.0,-2.0,0.0,0.0,1651025012031641.0,0
38,1.0,-3.0,0.0,1.0,2.0,0.0,-1.0,-1.0,1651025012033636.0,0
39,1.0,4.0,0.0,0.0,-1.0,0.0,-1.0,0.0,1651025012033636.0,0
40,-1.0,-1.0,-3.0,-2.0,-1.0,-1.0,0.0,1.0,1651025012046664.0,0
41,-2.0,1.0,0.0,-1.0,-1.0,-2.0,0.0,-1.0,1651025012046664.0,0
42,-3.0,-9.0,-3.0,1.0,1.0,-1.0,-2.0,0.0,1651025012053594.0,0
43,0.0,1.0,-3.0,-1.0,-1.0,-1.0,0.0,0.0,1651025012053594.0,0
44,1.0,13.0,-1.0,-5.0,-1.0,0.0,-1.0,-1.0,1651025012069607.0,0
45,-4.0,-15.0,-1.0,1.0,-1.0,-1.0,-1.0,-2.0,1651025012069607.0,0
46,0.0,-2.0,-2.0,1.0,1.0,0.0,1.0,1.0,1651025012070538.0,0
47,-2.0,-7.0,0.0,1.0,-2.0,-1.0,0.0,1.0,1651025012070538.0,0
48,2.0,7.0,1.0,0.0,0.0,0.0,-2.0,0.0,1651025012091999.0,0
49,4.0,10.0,0.0,1.0,2.0,0.0,0.0,1.0,1651025012091999.0,0
50,-2.0,-9.0,-2.0,-3.0,-1.0,0.0,0.0,0.0,1651025012093952.0,0
51,-2.0,3.0,-2.0,-1.0,0.0,0.0,-2.0,-2.0,1651025012093952.0,0
52,1.0,1.0,-1.0,-1.0,-1.0,-2.0,-1.0,-1.0,1651025012105980.0,0
53,5.0,-2.0,5.0,1.0,0.0,0.0,0.0,1.0,1651025012105980.0,0
54,-4.0,-27.0,-1.0,1.0,-1.0,-3.0,0.0,0.0,1651025012114892.0,0
55,7.0,44.0,5.0,0.0,2.0,-1.0,1.0,-1.0,1651025012114892.0,0
56,2.0,4.0,0.0,0.0,-1.0,-1.0,0.0,-2.0,1651025012129958.0,0
57,1.0,5.0,1.0,-1.0,0.0,-1.0,-1.0,0.0,1651025012129958.0,0
58,-1.0,-6.0,-3.0,-2.0,-3.0,1.0,0.0,-1.0,1651025012130928.0,0
59,-4.0,-18.0,-3.0,-2.0,0.0,-1.0,0.0,0.0,1651025012130928.0,0
60,1.0,1.0,2.0,2.0,0.0,0.0,-1.0,2.0,1651025012151940.0,0
61,1.0,9.0,-1.0,-2.0,-2.0,0.0,-1.0,0.0,1651025012151940.0,0
62,-3.0,9.0,1.0,0.0,1.0,-1.0,0.0,-2.0,1651025012153894.0,0
63,-5.0,-39.0,-6.0,0.0,-1.0,0.0,-1.0,-3.0,1651025012153894.0,0
64,-1.0,4.0,1.0,1.0,1.0,0.0,1.0,0.0,1651025012165901.0,0
65,-3.0,-3.0,0.0,2.0,2.0,0.0,-1.0,-1.0,1651025012165901.0,0
66,1.0,8.0,-1.0,-1.0,1.0,-2.0,-1.0,-1.0,1651025012174811.0,0
67,1.0,4.0,0.0,-2.0,-1.0,0.0,-2.0,-1.0,1651025012174811.0,0
68,-2.0,-7.0,-3.0,-1.0,-1.0,-2.0,-1.0,0.0,1651025012189941.0,0
69,-1.0,-3.0,-1.0,-2.0,-2.0,0.0,0.0,0.0,1651025012189941.0,0
70,2.0,8.0,1.0,-2.0,0.0,-1.0,-1.0,2.0,1651025012190856.0,0
71,-4.0,-11.0,-5.0,-1.0,1.0,0.0,1.0,-1.0,1651025012190856.0,0
72,0.0,3.0,4.0,0.0,-2.0,-2.0,-1.0,-1.0,1651025012211799.0,0
73,-2.0,6.0,2.0,2.0,3.0,0.0,0.0,0.0,1651025012211799.0,0
74,-2.0,-2.0,-1.0,0.0,-2.0,-1.0,0.0,-2.0,1651025012213794.0,0
75,-1.0,-2.0,-1.0,-2.0,-3.0,-1.0,0.0,1.0,1651025012213794.0,0
76,0.0,5.0,-2.0,-1.0,-1.0,0.0,2.0,-1.0,1651025012225836.0,0
77,0.0,5.0,0.0,-2.0,-2.0,-1.0,-1.0,-1.0,1651025012225836.0,0
78,2.0,7.0,0.0,1.0,1.0,0.0,-1.0,-1.0,1651025012234741.0,0
79,-1.0,0.0,-1.0,-2.0,-1.0,-2.0,-2.0,-3.0,1651025012234741.0,0
80,0.0,-6.0,0.0,-1.0,-1.0,0.0,0.0,0.0,1651025012249913.0,0
81,-6.0,5.0,2.0,1.0,0.0,0.0,-3.0,-1.0,1651025012249913.0,0
82,2.0,5.0,1.0,-1.0,-1.0,1.0,0.0,2.0,1651025012250842.0,0
83,-2.0,-7.0,-1.0,-1.0,-4.0,-2.0,-1.0,-1.0,1651025012250842.0,0
84,0.0,-5.0,-1.0,1.0,2.0,0.0,-1.0,-1.0,1651025012271593.0,0
85,-3.0,-8.0,-3.0,2.0,0.0,-1.0,-1.0,-1.0,1651025012271593.0,0
86,0.0,-10.0,0.0,-2.0,-1.0,-1.0,-1.0,-1.0,1651025012273520.0,0
87,-4.0,4.0,-2.0,0.0,0.0,-1.0,1.0,0.0,1651025012273520.0,0
88,-1.0,-1.0,3.0,1.0,-1.0,-2.0,-1.0,0.0,1651025012285656.0,0
89,1.0,-5.0,-3.0,-1.0,1.0,2.0,1.0,0.0,1651025012285656.0,0
90,-4.0,-2.0,-2.0,1.0,2.0,-1.0,0.0,0.0,1651025012294464.0,0
91,5.0,10.0,2.0,0.0,-2.0,1.0,0.0,1.0,1651025012294464.0,0
92,-9.0,-22.0,-5.0,-3.0,-1.0,1.0,-1.0,0.0,1651025012309948.0,0
93,5.0,12.0,-1.0,-2.0,-3.0,0.0,-1.0,-1.0,1651025012309948.0,0
94,0.0,2.0,4.0,5.0,-1.0,-2.0,-1.0,1.0,1651025012310976.0,0
95,0.0,8.0,2.0,2.0,3.0,0.0,-2.0,0.0,1651025012310976.0,0
96,0.0,-4.0,-2.0,-1.0,-3.0,0.0,0.0,-2.0,1651025012332065.0,0
97,-1.0,-2.0,-1.0,0.0,-1.0,1.0,0.0,-1.0,1651025012332065.0,0
98,0.0,-5.0,-3.0,-7.0,-2.0,0.0,0.0,0.0,1651025012334035.0,0
99,-1.0,6.0,2.0,0.0,0.0,0.0,-1.0,-1.0,1651025012334035.0,0
100,-1.0,5.0,2.0,3.0,2.0,-1.0,-2.0,-1.0,1651025012345972.0,0
101,1.0,1.0,0.0,-1.0,-1.0,-2.0,-1.0,-1.0,1651025012345972.0,0
102,0.0,3.0,-2.0,-2.0,-1.0,-1.0,-2.0,-2.0,1651025012355050.0,0
103,-4.0,-8.0,-5.0,-3.0,-1.0,0.0,-1.0,1.0,1651025012355050.0,0
104,1.0,2.0,-1.0,-5.0,-4.0,-1.0,-1.0,0.0,1651025012369108.0,0
105,3.0,-7.0,1.0,0.0,-2.0,-2.0,0.0,1.0,1651025012369108.0,0
106,1.0,19.0,-2.0,-3.0,-1.0,-1.0,-2.0,-2.0,1651025012371100.0,0
107,-4.0,-11.0,-3.0,3.0,-1.0,-2.0,1.0,-1.0,1651025012371100.0,0
108,1.0,5.0,0.0,1.0,-1.0,0.0,-1.0,0.0,1651025012392021.0,0
109,1.0,14.0,4.0,2.0,-1.0,-2.0,0.0,2.0,1651025012392021.0,0
110,-2.0,-21.0,-3.0,-1.0,2.0,0.0,1.0,0.0,1651025012393948.0,0
111,-1.0,-10.0,1.0,2.0,-1.0,1.0,0.0,2.0,1651025012393948.0,0
112,1.0,4.0,0.0,-1.0,0.0,0.0,0.0,-2.0,1651025012405980.0,0
113,-3.0,-5.0,-7.0,-6.0,0.0,-2.0,0.0,-2.0,1651025012405980.0,0
114,0.0,-12.0,1.0,2.0,1.0,1.0,2.0,-2.0,1651025012414893.0,0
115,0.0,4.0,-1.0,-1.0,-1.0,0.0,-1.0,-1.0,1651025012414893.0,0
116,-2.0,-12.0,-2.0,0.0,-2.0,-1.0,0.0,0.0,1651025012429948.0,0
117,0.0,-3.0,-2.0,-3.0,-3.0,-1.0,-2.0,0.0,1651025012429948.0,0
118,-1.0,-1.0,-2.0,-2.0,-2.0,-1.0,-1.0,-1.0,1651025012430936.0,0
119,5.0,8.0,-1.0,0.0,2.0,-2.0,-1.0,-1.0,1651025012430936.0,0
120,-2.0,-1.0,-2.0,-1.0,0.0,0.0,-1.0,0.0,1651025012451017.0,0
121,-2.0,-3.0,-1.0,0.0,1.0,-2.0,-1.0,-2.0,1651025012451017.0,0
122,-2.0,-3.0,-4.0,-1.0,-2.0,-1.0,-1.0,0.0,1651025012458954.0,0
123,4.0,19.0,3.0,1.0,0.0,0.0,1.0,0.0,1651025012458954.0,0
124,1.0,0.0,-2.0,-1.0,1.0,0.0,-1.0,-1.0,1651025012473886.0,0
125,0.0,-2.0,-1.0,0.0,1.0,0.0,0.0,-1.0,1651025012473886.0,0
126,-2.0,0.0,1.0,-2.0,-5.0,-1.0,-1.0,0.0,1651025012474885.0,0
127,-6.0,-22.0,-2.0,-1.0,-1.0,-1.0,-1.0,-2.0,1651025012474885.0,0
128,0.0,6.0,-4.0,-2.0,-1.0,-1.0,-2.0,0.0,1651025012495833.0,0
129,1.0,16.0,4.0,3.0,0.0,1.0,-1.0,-1.0,1651025012495833.0,0
130,-4.0,-23.0,-6.0,-4.0,-4.0,-2.0,-1.0,0.0,1651025012496825.0,0
131,-1.0,13.0,-2.0,-3.0,-3.0,-1.0,-1.0,-2.0,1651025012496825.0,0
132,-1.0,0.0,2.0,1.0,2.0,0.0,0.0,-1.0,1651025012511014.0,0
133,1.0,3.0,0.0,0.0,0.0,1.0,0.0,-1.0,1651025012511014.0,0
134,-1.0,1.0,0.0,1.0,0.0,1.0,-1.0,1.0,1651025012518926.0,0
135,1.0,8.0,1.0,-3.0,-3.0,-2.0,1.0,-1.0,1651025012518926.0,0
136,1.0,1.0,2.0,-1.0,0.0,0.0,1.0,0.0,1651025012533953.0,0
137,-6.0,-7.0,-6.0,-2.0,0.0,-2.0,-3.0,-3.0,1651025012533953.0,0
138,1.0,1.0,1.0,1.0,-1.0,0.0,0.0,0.0,1651025012534888.0,0
139,-1.0,-10.0,0.0,-1.0,0.0,1.0,1.0,1.0,1651025012534888.0,0
140,4.0,12.0,1.0,0.0,-1.0,-1.0,0.0,1.0,1651025012556793.0,0
141,-2.0,-3.0,-1.0,1.0,1.0,-1.0,1.0,0.0,1651025012556793.0,0
142,-3.0,-2.0,0.0,0.0,-1.0,-1.0,1.0,-1.0,1651025012556793.0,0
143,-4.0,-4.0,1.0,0.0,0.0,0.0,-1.0,-1.0,1651025012556793.0,0
144,-3.0,-3.0,1.0,1.0,0.0,2.0,-1.0,-1.0,1651025012570827.0,0
145,-1.0,-9.0,-1.0,0.0,1.0,1.0,-1.0,-1.0,1651025012570827.0,0
146,0.0,2.0,-1.0,-1.0,1.0,0.0,-2.0,-2.0,1651025012578802.0,0
147,1.0,6.0,2.0,-1.0,0.0,-2.0,-2.0,-1.0,1651025012578802.0,0
148,0.0,1.0,-3.0,-7.0,-3.0,-1.0,0.0,1.0,1651025012594263.0,0
149,-1.0,-7.0,-1.0,-2.0,-4.0,1.0,0.0,-1.0,1651025012594263.0,0
150,0.0,4.0,5.0,9.0,5.0,-2.0,-2.0,-1.0,1651025012594697.0,0
151,1.0,3.0,1.0,-3.0,-3.0,0.0,-1.0,0.0,1651025012594697.0,0
152,-5.0,-22.0,-5.0,-1.0,4.0,0.0,0.0,-1.0,1651025012616709.0,0
153,-2.0,6.0,-1.0,-4.0,-3.0,-3.0,-2.0,0.0,1651025012616709.0,0
154,0.0,1.0,1.0,0.0,-3.0,0.0,-1.0,-2.0,1651025012616709.0,0
155,-1.0,-4.0,-2.0,-1.0,-1.0,-2.0,-1.0,1.0,1651025012616709.0,0
156,4.0,21.0,3.0,-1.0,-3.0,0.0,0.0,-1.0,1651025012639737.0,0
157,-2.0,-14.0,0.0,0.0,3.0,0.0,1.0,0.0,1651025012639737.0,0
158,0.0,5.0,-2.0,-4.0,0.0,-1.0,0.0,-2.0,1651025012640696.0,0
159,-2.0,-1.0,1.0,0.0,0.0,0.0,-1.0,-2.0,1651025012640696.0,0
160,-4.0,-7.0,2.0,0.0,-3.0,-1.0,-2.0,-2.0,1651025012653633.0,0
161,0.0,13.0,1.0,-1.0,0.0,-1.0,-1.0,1.0,1651025012653633.0,0
162,-1.0,-1.0,-1.0,-2.0,-1.0,-2.0,0.0,1.0,1651025012654630.0,0
163,4.0,8.0,3.0,3.0,2.0,1.0,1.0,1.0,1651025012654630.0,0
164,2.0,-11.0,-1.0,-3.0,-1.0,-2.0,0.0,-1.0,1651025012675969.0,0
165,1.0,-4.0,2.0,0.0,1.0,1.0,0.0,-1.0,1651025012675969.0,0
166,-2.0,-6.0,-5.0,-5.0,-3.0,-2.0,0.0,0.0,1651025012676899.0,0
167,3.0,2.0,-2.0,-1.0,4.0,-1.0,0.0,-1.0,1651025012676899.0,0
168,-2.0,2.0,1.0,2.0,0.0,-1.0,0.0,-2.0,1651025012691012.0,0
169,0.0,0.0,-1.0,2.0,1.0,1.0,0.0,-2.0,1651025012691012.0,0
170,-1.0,1.0,1.0,-3.0,-3.0,-1.0,-2.0,0.0,1651025012698987.0,0
171,1.0,17.0,2.0,0.0,-3.0,-1.0,-1.0,-1.0,1651025012698987.0,0
172,0.0,-2.0,-1.0,0.0,1.0,0.0,0.0,2.0,1651025012713923.0,0
173,-2.0,4.0,-4.0,-5.0,-3.0,-2.0,0.0,0.0,1651025012713923.0,0
174,-1.0,0.0,2.0,1.0,-1.0,1.0,0.0,-1.0,1651025012714920.0,0
175,2.0,0.0,3.0,0.0,-2.0,-1.0,1.0,1.0,1651025012714920.0,0
176,0.0,16.0,0.0,0.0,-3.0,-3.0,-3.0,-1.0,1651025012736807.0,0
177,0.0,-9.0,-8.0,-1.0,1.0,-3.0,-2.0,-4.0,1651025012736807.0,0
178,2.0,5.0,1.0,1.0,2.0,1.0,0.0,0.0,1651025012736807.0,0
179,0.0,-9.0,-4.0,-6.0,-1.0,-1.0,1.0,1.0,1651025012736807.0,0
180,-3.0,3.0,-3.0,-2.0,-3.0,-1.0,0.0,-2.0,1651025012759812.0,0
181,-2.0,-11.0,1.0,1.0,-1.0,-1.0,-1.0,0.0,1651025012759812.0,0
182,5.0,12.0,-3.0,-2.0,-1.0,-1.0,-2.0,0.0,1651025012759812.0,0
183,-2.0,0.0,0.0,0.0,0.0,-3.0,-2.0,-1.0,1651025012759812.0,0
184,2.0,-12.0,3.0,7.0,3.0,2.0,1.0,1.0,1651025012773715.0,0
185,-4.0,-9.0,-3.0,1.0,-13.0,-2.0,-1.0,-1.0,1651025012773715.0,0
186,2.0,4.0,0.0,-3.0,14.0,-1.0,-1.0,0.0,1651025012774707.0,0
187,-1.0,-2.0,4.0,1.0,0.0,0.0,-1.0,-1.0,1651025012774707.0,0
188,-2.0,-5.0,-6.0,3.0,-1.0,-1.0,-1.0,-2.0,1651025012795978.0,0
189,2.0,9.0,-3.0,1.0,1.0,1.0,1.0,1.0,1651025012795978.0,0
190,0.0,2.0,0.0,0.0,-3.0,2.0,0.0,0.0,1651025012796909.0,0
191,-2.0,-17.0,-4.0,-1.0,-3.0,-1.0,-1.0,-2.0,1651025012796909.0,0
192,0.0,3.0,-2.0,-6.0,2.0,-3.0,-1.0,-1.0,1651025012819969.0,0
193,-1.0,-4.0,5.0,-9.0,-2.0,-1.0,0.0,0.0,1651025012819969.0,0
194,-3.0,8.0,-9.0,-12.0,-12.0,-7.0,-2.0,-3.0,1651025012819969.0,0
195,-2.0,-10.0,0.0,11.0,11.0,5.0,2.0,0.0,1651025012819969.0,0
196,3.0,14.0,4.0,-7.0,-12.0,-1.0,1.0,-1.0,1651025012834260.0,0
197,-6.0,-11.0,-3.0,32.0,24.0,0.0,-2.0,-2.0,1651025012834260.0,0
198,3.0,3.0,10.0,-3.0,-2.0,-1.0,1.0,3.0,1651025012834861.0,0
199,-1.0,6.0,-4.0,-21.0,-17.0,-6.0,-2.0,-1.0,1651025012834861.0,0
200,-4.0,-10.0,-9.0,14.0,10.0,0.0,-2.0,-2.0,1651025012855807.0,0
201,4.0,8.0,-10.0,-64.0,-25.0,-3.0,1.0,2.0,1651025012855807.0,0
202,-7.0,-10.0,-2.0,41.0,-4.0,-6.0,-5.0,-6.0,1651025012856814.0,0
203,8.0,3.0,2.0,-8.0,11.0,4.0,0.0,2.0,1651025012856814.0,0
204,-13.0,4.0,-1.0,-31.0,-5.0,0.0,-3.0,-4.0,1651025012879771.0,0
205,-5.0,3.0,14.0,43.0,12.0,-1.0,-3.0,-3.0,1651025012879771.0,0
206,0.0,-3.0,-5.0,-39.0,13.0,6.0,3.0,1.0,1651025012880741.0,0
207,0.0,-10.0,-2.0,35.0,-8.0,-3.0,1.0,2.0,1651025012880741.0,0
208,-2.0,-7.0,10.0,35.0,16.0,6.0,11.0,-1.0,1651025012893708.0,1
209,3.0,18.0,6.0,-11.0,-11.0,-7.0,-30.0,-4.0,1651025012893708.0,1
210,-1.0,-7.0,-13.0,-43.0,-20.0,-4.0,1.0,-1.0,1651025012894734.0,1
211,-1.0,-3.0,-19.0,-13.0,1.0,2.0,-1.0,0.0,1651025012894734.0,1
212,1.0,-8.0,3.0,10.0,-11.0,-7.0,-4.0,-2.0,1651025012915998.0,1
213,-3.0,-13.0,-15.0,2.0,7.0,4.0,10.0,1.0,1651025012915998.0,1
214,7.0,18.0,33.0,14.0,9.0,5.0,0.0,4.0,1651025012916927.0,1
215,-1.0,6.0,20.0,32.0,12.0,4.0,4.0,2.0,1651025012916927.0,1
216,6.0,0.0,-23.0,-38.0,-17.0,1.0,2.0,5.0,1651025012939017.0,1
217,-3.0,0.0,16.0,24.0,-3.0,-2.0,2.0,-4.0,1651025012939017.0,1
218,7.0,8.0,-16.0,-12.0,-6.0,0.0,-1.0,3.0,1651025012939017.0,1
219,-3.0,8.0,17.0,-11.0,5.0,7.0,4.0,-1.0,1651025012939017.0,1
220,-1.0,-4.0,51.0,10.0,14.0,-6.0,-6.0,0.0,1651025012954037.0,1
221,3.0,-3.0,-46.0,-16.0,-5.0,-6.0,-1.0,-1.0,1651025012954037.0,1
222,-3.0,8.0,42.0,22.0,2.0,1.0,4.0,0.0,1651025012954965.0,1
223,1.0,-1.0,-15.0,0.0,-10.0,-15.0,-5.0,-8.0,1651025012954965.0,1
224,-15.0,-30.0,30.0,-10.0,-10.0,15.0,11.0,5.0,1651025012975910.0,1
225,1.0,2.0,-40.0,-29.0,-6.0,17.0,6.0,1.0,1651025012975910.0,1
226,2.0,13.0,15.0,24.0,-1.0,-74.0,-25.0,-9.0,1651025012976913.0,1
227,-8.0,-2.0,-18.0,-3.0,1.0,53.0,7.0,4.0,1651025012976913.0,1
228,17.0,36.0,97.0,34.0,17.0,12.0,16.0,21.0,1651025012998888.0,1
229,9.0,-3.0,-45.0,-21.0,-18.0,-22.0,-23.0,-37.0,1651025012998888.0,1
230,-22.0,-22.0,-23.0,1.0,14.0,43.0,-4.0,2.0,1651025012999817.0,1
231,-4.0,6.0,-16.0,-11.0,-10.0,-43.0,8.0,-11.0,1651025012999817.0,1
232,-4.0,-27.0,-56.0,-30.0,-14.0,-78.0,0.0,5.0,1651025013013789.0,1
233,10.0,25.0,-8.0,31.0,13.0,17.0,33.0,27.0,1651025013013789.0,1
234,-16.0,-49.0,-1.0,4.0,7.0,73.0,-5.0,-32.0,1651025013014777.0,1
235,12.0,2.0,26.0,-7.0,2.0,-3.0,-21.0,11.0,1651025013014777.0,1
236,12.0,17.0,-59.0,-7.0,12.0,80.0,42.0,18.0,1651025013036718.0,1
237,-4.0,-93.0,-41.0,-42.0,-32.0,-128.0,-31.0,34.0,1651025013036718.0,1
238,21.0,43.0,31.0,8.0,3.0,23.0,24.0,-52.0,1651025013036718.0,1
239,-2.0,5.0,17.0,38.0,21.0,48.0,-33.0,-7.0,1651025013036718.0,1
240,-6.0,-10.0,10.0,9.0,-27.0,-93.0,-40.0,-4.0,1651025013058996.0,1
241,1.0,-13.0,-37.0,-16.0,35.0,127.0,42.0,6.0,1651025013058996.0,1
242,-11.0,6.0,0.0,-11.0,-20.0,-70.0,-11.0,20.0,1651025013059927.0,1
243,-7.0,37.0,72.0,30.0,7.0,9.0,0.0,-76.0,1651025013059927.0,1
244,13.0,22.0,-92.0,-46.0,-13.0,-19.0,20.0,58.0,1651025013073953.0,1
245,1.0,29.0,62.0,23.0,20.0,27.0,1.0,-59.0,1651025013073953.0,1
246,21.0,55.0,46.0,22.0,14.0,1.0,11.0,24.0,1651025013074887.0,1
247,-18.0,-41.0,-16.0,1.0,0.0,24.0,12.0,-3.0,1651025013074887.0,1
248,-10.0,-48.0,-45.0,-13.0,-9.0,5.0,8.0,-33.0,1651025013096050.0,1
249,-2.0,36.0,32.0,15.0,-11.0,-49.0,-17.0,31.0,1651025013096050.0,1
250,18.0,52.0,35.0,25.0,-2.0,-23.0,-30.0,0.0,1651025013096981.0,1
251,9.0,-20.0,-17.0,-12.0,6.0,30.0,53.0,39.0,1651025013096981.0,1
252,-32.0,-16.0,-41.0,-3.0,1.0,11.0,-61.0,-69.0,1651025013120070.0,1
253,-17.0,24.0,-26.0,-9.0,3.0,31.0,13.0,-20.0,1651025013120070.0,1
254,20.0,28.0,7.0,13.0,-3.0,-24.0,30.0,34.0,1651025013126111.0,1
255,-1.0,31.0,61.0,9.0,-6.0,-56.0,-18.0,13.0,1651025013126111.0,1
256,-2.0,-31.0,-18.0,-9.0,12.0,51.0,13.0,29.0,1651025013134138.0,1
257,-10.0,-54.0,32.0,33.0,-1.0,-2.0,3.0,-32.0,1651025013134138.0,1
258,-1.0,7.0,-20.0,-33.0,6.0,31.0,-26.0,9.0,1651025013134138.0,1
259,-13.0,-45.0,-100.0,-22.0,0.0,-18.0,12.0,12.0,1651025013134138.0,1
260,22.0,57.0,71.0,40.0,12.0,-18.0,-2.0,14.0,1651025013157102.0,1
261,-20.0,-73.0,-3.0,-3.0,-9.0,-9.0,41.0,29.0,1651025013157102.0,1
262,19.0,48.0,20.0,10.0,-10.0,7.0,-13.0,-12.0,1651025013157102.0,1
263,18.0,-31.0,-68.0,-57.0,-3.0,8.0,2.0,8.0,1651025013157102.0,1
264,-32.0,-43.0,42.0,52.0,23.0,-17.0,-10.0,-49.0,1651025013179044.0,1
265,10.0,103.0,8.0,-14.0,-25.0,-77.0,-53.0,37.0,1651025013179044.0,1
266,-4.0,-52.0,-22.0,9.0,16.0,105.0,60.0,12.0,1651025013180013.0,1
267,-13.0,-19.0,-21.0,-31.0,-31.0,-111.0,-54.0,-14.0,1651025013180013.0,1
268,14.0,18.0,36.0,14.0,16.0,119.0,43.0,13.0,1651025013195045.0,1
269,7.0,32.0,-3.0,-2.0,8.0,23.0,-18.0,12.0,1651025013195045.0,1
270,-17.0,-36.0,-32.0,-1.0,-15.0,-69.0,-40.0,-31.0,1651025013196052.0,1
271,-9.0,1.0,48.0,13.0,0.0,-12.0,-30.0,-29.0,1651025013196052.0,1
272,3.0,-56.0,-63.0,-22.0,-15.0,-23.0,24.0,21.0,1651025013216069.0,1
273,5.0,31.0,48.0,4.0,5.0,10.0,-3.0,-14.0,1651025013216069.0,1
274,2.0,7.0,-29.0,-21.0,-8.0,-19.0,-30.0,-17.0,1651025013217039.0,1
275,40.0,-10.0,-15.0,11.0,3.0,4.0,27.0,26.0,1651025013217039.0,1
276,-59.0,25.0,16.0,-14.0,-13.0,-30.0,-44.0,-34.0,1651025013238961.0,1
277,2.0,22.0,106.0,24.0,20.0,29.0,3.0,-7.0,1651025013238961.0,1
278,-24.0,-104.0,-124.0,-28.0,-27.0,-51.0,-13.0,-12.0,1651025013239917.0,1
279,16.0,61.0,48.0,21.0,14.0,40.0,28.0,18.0,1651025013239917.0,1
280,8.0,-57.0,-52.0,-33.0,5.0,6.0,14.0,11.0,1651025013253920.0,1
281,20.0,48.0,35.0,15.0,0.0,-47.0,-21.0,17.0,1651025013253920.0,1
282,-12.0,-8.0,5.0,-6.0,0.0,1.0,30.0,49.0,1651025013254877.0,1
283,-7.0,-32.0,-22.0,-7.0,-22.0,-16.0,48.0,32.0,1651025013254877.0,1
284,18.0,78.0,17.0,5.0,9.0,52.0,0.0,-21.0,1651025013276454.0,1
285,-3.0,-33.0,-37.0,-21.0,-8.0,-24.0,-25.0,-53.0,1651025013276454.0,1
286,21.0,23.0,68.0,21.0,10.0,40.0,75.0,60.0,1651025013277492.0,1
287,-42.0,-63.0,-56.0,9.0,0.0,-6.0,-15.0,-12.0,1651025013277492.0,1
288,0.0,-35.0,-55.0,-38.0,-17.0,-35.0,-53.0,-14.0,1651025013298405.0,1
289,11.0,18.0,48.0,18.0,2.0,-12.0,5.0,-28.0,1651025013298405.0,1
290,7.0,1.0,-14.0,3.0,8.0,0.0,9.0,9.0,1651025013299394.0,1
291,3.0,57.0,53.0,13.0,2.0,-3.0,-14.0,11.0,1651025013299394.0,1
292,6.0,-41.0,-17.0,5.0,-3.0,-17.0,10.0,7.0,1651025013313404.0,1
293,-10.0,16.0,-32.0,-7.0,-11.0,14.0,25.0,30.0,1651025013313404.0,1
294,-3.0,-49.0,-4.0,7.0,7.0,-7.0,-2.0,-5.0,1651025013314354.0,1
295,12.0,65.0,16.0,-12.0,2.0,20.0,-14.0,3.0,1651025013314354.0,1
296,38.0,109.0,77.0,54.0,8.0,-40.0,26.0,57.0,1651025013336363.0,1
297,-60.0,-128.0,-109.0,-55.0,-9.0,18.0,-37.0,-39.0,1651025013336363.0,1
298,-8.0,52.0,4.0,-8.0,1.0,49.0,19.0,-39.0,1651025013337293.0,1
299,-3.0,-1.0,23.0,16.0,-6.0,-66.0,-46.0,-17.0,1651025013337293.0,1
300,12.0,1.0,-9.0,-16.0,2.0,40.0,34.0,4.0,1651025013358458.0,1
301,17.0,11.0,74.0,35.0,15.0,33.0,55.0,102.0,1651025013358458.0,1
302,-11.0,16.0,-12.0,-8.0,-5.0,3.0,-15.0,-72.0,1651025013359388.0,1
303,-30.0,-11.0,-69.0,-30.0,-10.0,7.0,-6.0,-8.0,1651025013359388.0,1
304,15.0,-14.0,13.0,14.0,-5.0,-20.0,14.0,33.0,1651025013374357.0,1
305,-1.0,23.0,53.0,15.0,9.0,4.0,-6.0,-6.0,1651025013374357.0,1
306,-8.0,-54.0,-15.0,-10.0,-7.0,-37.0,-53.0,-11.0,1651025013374357.0,1
307,5.0,-17.0,-9.0,-17.0,-16.0,9.0,25.0,8.0,1651025013374357.0,1
308,-7.0,31.0,54.0,14.0,-3.0,-16.0,8.0,-4.0,1651025013396436.0,1
309,20.0,27.0,-36.0,7.0,14.0,19.0,19.0,-4.0,1651025013396436.0,1
310,-6.0,15.0,8.0,-8.0,0.0,-6.0,15.0,35.0,1651025013397365.0,1
311,14.0,8.0,-5.0,-5.0,2.0,5.0,-2.0,-4.0,1651025013397365.0,1
312,-7.0,-1.0,-19.0,2.0,0.0,8.0,-34.0,-30.0,1651025013419306.0,1
313,10.0,11.0,-3.0,-16.0,-14.0,-14.0,-16.0,-15.0,1651025013419306.0,1
314,11.0,53.0,36.0,35.0,10.0,-6.0,-6.0,3.0,1651025013419306.0,1
315,1.0,-56.0,-4.0,-3.0,-1.0,-1.0,36.0,34.0,1651025013419306.0,1
316,2.0,71.0,-14.0,-21.0,-5.0,18.0,-10.0,12.0,1651025013434925.0,1
317,0.0,-52.0,-24.0,-7.0,0.0,-32.0,-4.0,5.0,1651025013434925.0,1
318,-4.0,29.0,-6.0,-2.0,-6.0,17.0,19.0,-11.0,1651025013435929.0,1
319,-2.0,-22.0,-22.0,-8.0,-1.0,-2.0,-16.0,-6.0,1651025013435929.0,1
320,-10.0,17.0,66.0,21.0,7.0,15.0,101.0,90.0,1651025013455931.0,1
321,-19.0,-107.0,-97.0,-29.0,-13.0,-18.0,-46.0,-56.0,1651025013455931.0,1
322,19.0,51.0,31.0,-1.0,-7.0,4.0,54.0,69.0,1651025013456870.0,1
323,-18.0,-6.0,-17.0,-16.0,-1.0,-30.0,-108.0,-99.0,1651025013456870.0,1
324,5.0,-14.0,-16.0,6.0,4.0,7.0,-18.0,-29.0,1651025013478812.0,1
325,15.0,-21.0,13.0,12.0,4.0,13.0,32.0,28.0,1651025013478812.0,1
326,-10.0,-29.0,0.0,5.0,1.0,-19.0,-28.0,-8.0,1651025013479808.0,1
327,-7.0,18.0,-1.0,-1.0,-5.0,5.0,43.0,13.0,1651025013479808.0,1
328,-5.0,-6.0,31.0,4.0,3.0,7.0,-68.0,-56.0,1651025013493799.0,1
329,-7.0,-3.0,-57.0,6.0,-1.0,6.0,-3.0,-10.0,1651025013493799.0,1
330,13.0,-13.0,-42.0,-25.0,4.0,-17.0,-26.0,-12.0,1651025013494768.0,1
331,-20.0,-72.0,8.0,3.0,-4.0,17.0,-2.0,-5.0,1651025013494768.0,1
332,6.0,46.0,8.0,-12.0,1.0,-3.0,-22.0,-23.0,1651025013516822.0,1
333,12.0,32.0,69.0,27.0,0.0,11.0,20.0,17.0,1651025013516822.0,1
334,-10.0,-71.0,-28.0,0.0,0.0,-11.0,1.0,13.0,1651025013516822.0,1
335,10.0,80.0,4.0,-11.0,-6.0,-26.0,-20.0,-26.0,1651025013516822.0,1
336,11.0,-25.0,-43.0,-3.0,5.0,53.0,86.0,59.0,1651025013538955.0,1
337,4.0,20.0,53.0,32.0,16.0,16.0,-85.0,-94.0,1651025013538955.0,1
338,2.0,-8.0,-32.0,-37.0,-17.0,-50.0,-24.0,-7.0,1651025013539911.0,1
339,8.0,26.0,19.0,32.0,27.0,93.0,37.0,25.0,1651025013539911.0,1
340,-9.0,-29.0,-57.0,-33.0,-27.0,-9.0,-2.0,-42.0,1651025013554017.0,1
341,1.0,37.0,13.0,-15.0,-3.0,-34.0,5.0,14.0,1651025013554017.0,1
342,-5.0,3.0,11.0,19.0,19.0,27.0,-6.0,-3.0,1651025013555014.0,1
343,5.0,-78.0,-50.0,-13.0,0.0,-11.0,21.0,23.0,1651025013555014.0,1
344,9.0,60.0,53.0,2.0,-6.0,-32.0,-22.0,34.0,1651025013575967.0,1
345,8.0,27.0,-28.0,-11.0,-9.0,5.0,15.0,20.0,1651025013575967.0,1
346,-10.0,-13.0,-27.0,-21.0,-10.0,-8.0,-28.0,-27.0,1651025013576906.0,1
347,12.0,27.0,83.0,48.0,15.0,8.0,24.0,26.0,1651025013576906.0,1
348,-19.0,-65.0,-25.0,-9.0,5.0,-6.0,-3.0,-15.0,1651025013598877.0,1
349,1.0,2.0,-18.0,-30.0,-20.0,-40.0,-19.0,10.0,1651025013598877.0,1
350,-9.0,-19.0,24.0,28.0,8.0,57.0,29.0,-19.0,1651025013599900.0,1
351,2.0,6.0,-14.0,-18.0,-1.0,-21.0,-17.0,20.0,1651025013599900.0,1
352,17.0,24.0,25.0,27.0,12.0,-9.0,10.0,7.0,1651025013613382.0,1
353,-10.0,-26.0,31.0,24.0,7.0,-2.0,-5.0,1.0,1651025013613382.0,1
354,-12.0,-6.0,-1.0,-10.0,-5.0,30.0,71.0,23.0,1651025013620928.0,1
355,23.0,16.0,-19.0,-18.0,-5.0,-2.0,23.0,33.0,1651025013620928.0,1
356,-30.0,-3.0,-7.0,1.0,-12.0,-61.0,-88.0,-53.0,1651025013635924.0,1
357,20.0,32.0,51.0,8.0,9.0,49.0,39.0,25.0,1651025013635924.0,1
358,-11.0,-16.0,-47.0,-3.0,-1.0,13.0,-19.0,-8.0,1651025013636864.0,1
359,-33.0,-27.0,1.0,-4.0,-7.0,-35.0,-21.0,-24.0,1651025013636864.0,1
360,28.0,43.0,12.0,10.0,-3.0,-14.0,-2.0,12.0,1651025013658867.0,1
361,-5.0,-63.0,-36.0,-20.0,-3.0,2.0,22.0,19.0,1651025013658867.0,1
362,0.0,84.0,94.0,20.0,-2.0,-29.0,-28.0,-18.0,1651025013659823.0,1
363,16.0,34.0,-3.0,5.0,14.0,29.0,4.0,-8.0,1651025013659823.0,1
364,-25.0,-42.0,-8.0,-17.0,-14.0,-22.0,-24.0,-30.0,1651025013672829.0,1
365,-7.0,-22.0,1.0,5.0,4.0,12.0,13.0,1.0,1651025013672829.0,1
366,-7.0,12.0,-6.0,5.0,1.0,-11.0,3.0,-1.0,1651025013681746.0,1
367,3.0,5.0,16.0,-6.0,-14.0,-36.0,-34.0,-27.0,1651025013681746.0,1
368,19.0,11.0,-9.0,3.0,11.0,53.0,52.0,20.0,1651025013695972.0,1
369,-7.0,12.0,-80.0,-37.0,-20.0,18.0,-2.0,3.0,1651025013695972.0,1
370,10.0,3.0,17.0,-3.0,5.0,-36.0,-1.0,30.0,1651025013696901.0,1
371,-24.0,-30.0,12.0,4.0,5.0,44.0,44.0,-13.0,1651025013696901.0,1
372,16.0,10.0,30.0,19.0,1.0,-39.0,-11.0,1.0,1651025013718865.0,1
373,-25.0,-43.0,-29.0,-23.0,0.0,39.0,-14.0,-36.0,1651025013718865.0,1
374,23.0,61.0,46.0,24.0,0.0,-14.0,-1.0,17.0,1651025013719839.0,1
375,11.0,4.0,-40.0,-5.0,2.0,12.0,-13.0,-8.0,1651025013719839.0,1
376,5.0,-81.0,-14.0,-15.0,-7.0,-16.0,35.0,36.0,1651025013732809.0,1
377,-2.0,81.0,29.0,-2.0,-3.0,-11.0,25.0,18.0,1651025013732809.0,1
378,-3.0,-11.0,-27.0,15.0,0.0,-17.0,-23.0,-6.0,1651025013741808.0,1
379,-33.0,-54.0,18.0,6.0,-4.0,-13.0,-8.0,-6.0,1651025013741808.0,1
380,21.0,35.0,7.0,-1.0,9.0,25.0,-4.0,-3.0,1651025013756798.0,1
381,13.0,21.0,-3.0,0.0,4.0,-23.0,-5.0,11.0,1651025013756798.0,1
382,-1.0,-51.0,-49.0,-13.0,-12.0,-3.0,-14.0,-13.0,1651025013756798.0,1
383,3.0,24.0,53.0,17.0,1.0,-1.0,-26.0,-34.0,1651025013756798.0,1
384,-16.0,-7.0,0.0,3.0,8.0,14.0,-66.0,-53.0,1651025013779015.0,1
385,7.0,19.0,-43.0,6.0,4.0,-11.0,24.0,21.0,1651025013779015.0,1
386,-33.0,-83.0,-21.0,-17.0,15.0,10.0,-49.0,-25.0,1651025013779946.0,1
387,24.0,55.0,21.0,10.0,-4.0,21.0,13.0,-8.0,1651025013779946.0,1
388,-12.0,27.0,9.0,4.0,-20.0,-53.0,-26.0,-26.0,1651025013793373.0,1
389,-7.0,-28.0,3.0,-6.0,-1.0,28.0,15.0,-24.0,1651025013793373.0,1
390,-3.0,26.0,22.0,-6.0,-8.0,-33.0,3.0,9.0,1651025013801419.0,1
391,23.0,28.0,-13.0,-2.0,3.0,40.0,29.0,38.0,1651025013801419.0,1
392,-13.0,-42.0,-21.0,-15.0,-1.0,5.0,2.0,7.0,1651025013816382.0,1
393,4.0,33.0,45.0,35.0,0.0,-39.0,-42.0,-66.0,1651025013816382.0,1
394,-6.0,-23.0,-72.0,-38.0,-12.0,22.0,6.0,-8.0,1651025013817312.0,1
395,1.0,12.0,24.0,2.0,1.0,-12.0,13.0,17.0,1651025013817312.0,1
396,16.0,63.0,38.0,22.0,11.0,24.0,17.0,10.0,1651025013838891.0,1
397,-5.0,-67.0,-34.0,-11.0,-4.0,-1.0,9.0,27.0,1651025013838891.0,1
398,4.0,43.0,46.0,10.0,-3.0,1.0,-2.0,11.0,1651025013839911.0,1
399,-15.0,-46.0,-76.0,-11.0,-5.0,-28.0,-20.0,-5.0,1651025013839911.0,1
400,0.0,-45.0,-19.0,9.0,9.0,9.0,8.0,2.0,1651025013852880.0,1
401,-1.0,34.0,66.0,18.0,6.0,7.0,1.0,13.0,1651025013852880.0,1
402,19.0,74.0,33.0,2.0,-7.0,-18.0,-36.0,-23.0,1651025013861857.0,1
403,-26.0,-62.0,-53.0,-23.0,-10.0,27.0,43.0,12.0,1651025013861857.0,1
404,4.0,0.0,-11.0,-2.0,17.0,-1.0,-3.0,6.0,1651025013876034.0,1
405,-6.0,11.0,3.0,15.0,10.0,59.0,10.0,8.0,1651025013876034.0,1
406,7.0,-17.0,9.0,0.0,-2.0,-16.0,-7.0,29.0,1651025013876972.0,1
407,19.0,69.0,31.0,-3.0,-14.0,-58.0,-19.0,17.0,1651025013876972.0,1
408,-27.0,-87.0,-38.0,-14.0,-2.0,55.0,34.0,-1.0,1651025013898956.0,1
409,22.0,80.0,63.0,7.0,-4.0,-15.0,-10.0,14.0,1651025013898956.0,1
410,-37.0,-128.0,-77.0,-7.0,5.0,29.0,47.0,19.0,1651025013899934.0,1
411,5.0,62.0,15.0,-9.0,-9.0,-30.0,-18.0,-11.0,1651025013899934.0,1
412,-1.0,24.0,69.0,25.0,10.0,-20.0,-10.0,4.0,1651025013912966.0,1
413,-7.0,-32.0,-82.0,-24.0,2.0,-18.0,-14.0,-8.0,1651025013912966.0,1
414,16.0,6.0,-2.0,-8.0,-1.0,30.0,37.0,21.0,1651025013929001.0,1
415,10.0,45.0,66.0,35.0,14.0,1.0,-26.0,-16.0,1651025013929001.0,1
416,-14.0,-29.0,-45.0,-27.0,-15.0,-11.0,8.0,-7.0,1651025013935982.0,1
417,8.0,33.0,14.0,0.0,-5.0,-5.0,27.0,17.0,1651025013935982.0,1
418,-13.0,-60.0,-21.0,-3.0,-13.0,-28.0,-46.0,-26.0,1651025013936926.0,1
419,0.0,-14.0,-11.0,-8.0,14.0,17.0,-11.0,-15.0,1651025013936926.0,1
420,2.0,47.0,9.0,11.0,-6.0,-6.0,-22.0,-8.0,1651025013958922.0,1
421,15.0,31.0,45.0,24.0,23.0,17.0,16.0,11.0,1651025013958922.0,1
422,10.0,26.0,-38.0,5.0,-2.0,1.0,16.0,-22.0,1651025013959880.0,1
423,-7.0,-42.0,16.0,-3.0,-8.0,-31.0,-26.0,17.0,1651025013959880.0,1
424,10.0,34.0,-17.0,-5.0,1.0,32.0,28.0,25.0,1651025013981793.0,1
425,-31.0,-83.0,-38.0,-11.0,-10.0,-26.0,29.0,-12.0,1651025013981793.0,1
426,26.0,64.0,60.0,12.0,9.0,4.0,-29.0,-2.0,1651025013982804.0,1
427,6.0,-8.0,-17.0,4.0,-1.0,6.0,51.0,38.0,1651025013982804.0,1
428,-22.0,17.0,1.0,-25.0,-12.0,-24.0,-37.0,-31.0,1651025013996810.0,1
429,6.0,-3.0,-1.0,-10.0,-6.0,-7.0,-2.0,13.0,1651025013996810.0,1
430,4.0,43.0,-6.0,-6.0,2.0,9.0,16.0,15.0,1651025013996810.0,1
431,-3.0,-9.0,13.0,12.0,8.0,-1.0,-4.0,-15.0,1651025013996810.0,1
432,-12.0,-39.0,-44.0,-4.0,-5.0,-11.0,5.0,15.0,1651025014018893.0,1
433,7.0,4.0,19.0,6.0,-1.0,2.0,-17.0,-11.0,1651025014018893.0,1
434,-10.0,-25.0,34.0,3.0,2.0,-16.0,-3.0,-7.0,1651025014019903.0,1
435,-6.0,-32.0,-25.0,-11.0,-6.0,34.0,-7.0,-15.0,1651025014019903.0,1
436,10.0,14.0,3.0,11.0,18.0,-4.0,-2.0,4.0,1651025014042475.0,1
437,4.0,42.0,30.0,-10.0,-5.0,11.0,2.0,-25.0,1651025014042475.0,1
438,-14.0,-21.0,-41.0,0.0,-6.0,2.0,9.0,12.0,1651025014042475.0,1
439,12.0,57.0,9.0,-6.0,-4.0,-2.0,0.0,-15.0,1651025014042475.0,1
440,-3.0,-21.0,33.0,14.0,-6.0,-23.0,-52.0,-49.0,1651025014056440.0,1
441,-2.0,-25.0,-56.0,-26.0,-7.0,-10.0,18.0,38.0,1651025014056440.0,1
442,1.0,-1.0,2.0,-5.0,9.0,33.0,7.0,-10.0,1651025014057438.0,1
443,15.0,47.0,35.0,14.0,5.0,17.0,30.0,4.0,1651025014057438.0,1
444,-3.0,21.0,-30.0,-23.0,-10.0,18.0,23.0,5.0,1651025014079308.0,1
445,-16.0,-54.0,8.0,9.0,0.0,-24.0,-41.0,-20.0,1651025014079308.0,1
446,-3.0,8.0,33.0,18.0,10.0,5.0,1.0,7.0,1651025014079308.0,1
447,2.0,18.0,-10.0,6.0,-2.0,-12.0,-2.0,12.0,1651025014079308.0,1
448,-6.0,-92.0,-99.0,-42.0,-14.0,-19.0,-14.0,0.0,1651025014102220.0,1
449,3.0,7.0,42.0,12.0,0.0,34.0,22.0,-6.0,1651025014102220.0,1
450,12.0,20.0,4.0,21.0,31.0,11.0,18.0,17.0,1651025014103218.0,1
451,-5.0,0.0,10.0,-9.0,-3.0,1.0,-10.0,-10.0,1651025014103218.0,1
452,14.0,23.0,50.0,19.0,0.0,-9.0,7.0,3.0,1651025014116183.0,1
453,-1.0,16.0,3.0,11.0,-1.0,-7.0,12.0,-9.0,1651025014116183.0,1
454,0.0,-17.0,6.0,-5.0,-19.0,-40.0,-22.0,-7.0,1651025014117182.0,1
455,-11.0,-30.0,-26.0,-21.0,0.0,41.0,-17.0,3.0,1651025014117182.0,1
456,5.0,34.0,64.0,23.0,8.0,5.0,29.0,12.0,1651025014139122.0,1
457,11.0,-8.0,-41.0,-19.0,3.0,10.0,19.0,12.0,1651025014139122.0,1
458,23.0,61.0,70.0,27.0,0.0,-30.0,-33.0,19.0,1651025014139122.0,1
459,-54.0,-54.0,-43.0,-15.0,-3.0,20.0,-1.0,14.0,1651025014139122.0,1
460,-5.0,1.0,-18.0,-21.0,-10.0,-37.0,-56.0,-41.0,1651025014162127.0,1
461,16.0,14.0,10.0,21.0,20.0,53.0,65.0,68.0,1651025014162127.0,1
462,1.0,1.0,41.0,13.0,-1.0,-32.0,0.0,-39.0,1651025014163085.0,1
463,2.0,37.0,23.0,23.0,11.0,29.0,-5.0,32.0,1651025014163085.0,1
464,-8.0,-66.0,-30.0,5.0,-3.0,-9.0,-9.0,-6.0,1651025014176088.0,1
465,-45.0,-66.0,-89.0,-69.0,-22.0,-39.0,-34.0,-31.0,1651025014176088.0,1
466,2.0,0.0,10.0,-16.0,-14.0,0.0,30.0,17.0,1651025014177020.0,1
467,19.0,14.0,-10.0,-8.0,-1.0,-25.0,2.0,-5.0,1651025014177020.0,1
468,-13.0,20.0,56.0,25.0,2.0,18.0,18.0,10.0,1651025014198989.0,1
469,19.0,40.0,33.0,30.0,4.0,-16.0,-38.0,1.0,1651025014198989.0,1
470,5.0,24.0,25.0,-23.0,1.0,27.0,17.0,3.0,1651025014199972.0,1
471,-21.0,-64.0,-59.0,-12.0,-14.0,-36.0,-25.0,-35.0,1651025014199972.0,1
472,-14.0,-57.0,-69.0,-32.0,-16.0,-1.0,3.0,4.0,1651025014220903.0,1
473,5.0,21.0,30.0,12.0,10.0,-19.0,-8.0,5.0,1651025014220903.0,1
474,-4.0,-5.0,8.0,16.0,9.0,8.0,8.0,8.0,1651025014228893.0,1
475,21.0,18.0,10.0,2.0,4.0,0.0,3.0,-26.0,1651025014228893.0,1
476,4.0,43.0,7.0,-4.0,0.0,9.0,49.0,42.0,1651025014236860.0,1
477,19.0,1.0,46.0,16.0,-6.0,-5.0,-5.0,26.0,1651025014236860.0,1
478,-22.0,-28.0,-60.0,0.0,-8.0,-16.0,-45.0,-36.0,1651025014236860.0,1
479,12.0,29.0,-22.0,-25.0,-14.0,-9.0,0.0,-7.0,1651025014236860.0,1
480,10.0,4.0,17.0,15.0,14.0,17.0,10.0,3.0,1651025014258870.0,1
481,-10.0,32.0,16.0,-10.0,-3.0,-3.0,-26.0,-19.0,1651025014258870.0,1
482,10.0,-20.0,-49.0,-8.0,-4.0,14.0,38.0,5.0,1651025014266802.0,1
483,-14.0,-27.0,-6.0,-6.0,-13.0,-16.0,6.0,0.0,1651025014266802.0,1
484,2.0,20.0,-1.0,-5.0,12.0,0.0,-28.0,-14.0,1651025014282356.0,1
485,12.0,12.0,22.0,1.0,-5.0,-2.0,7.0,1.0,1651025014282356.0,1
486,-13.0,-36.0,-59.0,-41.0,-16.0,5.0,-3.0,-4.0,1651025014283296.0,1
487,1.0,-4.0,6.0,17.0,5.0,-16.0,-10.0,-5.0,1651025014283296.0,1
488,0.0,29.0,20.0,12.0,4.0,8.0,19.0,9.0,1651025014304237.0,1
489,-6.0,-9.0,16.0,24.0,10.0,4.0,-6.0,-11.0,1651025014304237.0,1
490,-12.0,-10.0,-9.0,-14.0,-8.0,0.0,-8.0,-2.0,1651025014305234.0,1
491,0.0,2.0,3.0,-24.0,-9.0,2.0,9.0,1.0,1651025014305234.0,1
492,14.0,27.0,20.0,6.0,-3.0,1.0,-8.0,-2.0,1651025014319210.0,1
493,-6.0,-28.0,-26.0,3.0,7.0,-5.0,-12.0,-9.0,1651025014319210.0,1
494,-2.0,14.0,-4.0,-9.0,-14.0,4.0,-13.0,-8.0,1651025014319210.0,1
495,8.0,4.0,17.0,29.0,24.0,6.0,12.0,10.0,1651025014319210.0,1
496,0.0,1.0,7.0,11.0,5.0,2.0,15.0,1.0,1651025014342199.0,1
497,-15.0,-9.0,-28.0,-44.0,-25.0,-17.0,-39.0,-18.0,1651025014342199.0,1
498,6.0,10.0,8.0,13.0,6.0,7.0,8.0,5.0,1651025014343161.0,1
499,0.0,2.0,26.0,25.0,30.0,12.0,10.0,7.0,1651025014343161.0,1
500,-2.0,-9.0,-8.0,2.0,-6.0,-4.0,-6.0,-2.0,1651025014356125.0,1
501,-4.0,-1.0,-13.0,-10.0,-6.0,1.0,6.0,-4.0,1651025014356125.0,1
502,0.0,11.0,19.0,5.0,3.0,4.0,0.0,0.0,1651025014357109.0,1
503,2.0,1.0,3.0,-5.0,-9.0,-7.0,-6.0,0.0,1651025014357109.0,1
504,3.0,4.0,-8.0,-12.0,-14.0,-3.0,-6.0,-3.0,1651025014379103.0,1
505,0.0,-1.0,0.0,20.0,15.0,3.0,5.0,0.0,1651025014379103.0,1
506,-5.0,-13.0,5.0,6.0,14.0,7.0,-2.0,0.0,1651025014379103.0,1
507,1.0,2.0,-11.0,-10.0,-12.0,-7.0,2.0,1.0,1651025014379103.0,1
508,5.0,27.0,10.0,10.0,6.0,4.0,0.0,0.0,1651025014401931.0,1
509,-18.0,-86.0,-16.0,7.0,-8.0,-3.0,-4.0,-9.0,1651025014401931.0,1
510,-6.0,24.0,1.0,0.0,6.0,0.0,-3.0,-4.0,1651025014402924.0,1
511,2.0,1.0,11.0,0.0,1.0,3.0,1.0,2.0,1651025014402924.0,1
512,3.0,-3.0,-11.0,-16.0,-11.0,-1.0,-4.0,1.0,1651025014416747.0,1
513,0.0,6.0,-11.0,-2.0,3.0,-2.0,-1.0,0.0,1651025014416747.0,1
514,-5.0,1.0,7.0,2.0,3.0,3.0,2.0,0.0,1651025014416747.0,1
515,11.0,37.0,11.0,0.0,-5.0,-2.0,3.0,2.0,1651025014416747.0,1
516,-21.0,-32.0,-12.0,-8.0,-2.0,-6.0,-11.0,-11.0,1651025014438683.0,1
517,8.0,5.0,-2.0,4.0,-1.0,-1.0,3.0,3.0,1651025014438683.0,1
518,0.0,-1.0,-1.0,0.0,1.0,2.0,3.0,1.0,1651025014439680.0,1
519,2.0,25.0,14.0,1.0,-3.0,1.0,0.0,0.0,1651025014439680.0,1
520,1.0,-7.0,-11.0,-4.0,1.0,-2.0,-3.0,0.0,1651025014462681.0,1
521,0.0,10.0,3.0,1.0,1.0,2.0,3.0,0.0,1651025014462681.0,1
522,7.0,8.0,4.0,-3.0,-5.0,0.0,1.0,2.0,1651025014463616.0,1
523,2.0,-21.0,0.0,5.0,2.0,1.0,1.0,3.0,1651025014463616.0,1
524,4.0,34.0,3.0,-1.0,1.0,-1.0,-1.0,-1.0,1651025014477117.0,1
525,-4.0,-2.0,-4.0,-2.0,-2.0,-1.0,1.0,0.0,1651025014477117.0,1
526,-4.0,-6.0,5.0,3.0,1.0,-1.0,-2.0,-4.0,1651025014484098.0,1
527,-4.0,-12.0,-5.0,1.0,-2.0,-2.0,-2.0,-3.0,1651025014484098.0,1
528,-3.0,-61.0,-4.0,2.0,3.0,1.0,2.0,0.0,1651025014498826.0,1
529,5.0,43.0,2.0,-2.0,-6.0,-3.0,-2.0,-3.0,1651025014498826.0,1
530,20.0,27.0,13.0,3.0,-6.0,1.0,1.0,4.0,1651025014499815.0,1
531,-22.0,10.0,-15.0,-4.0,15.0,1.0,-3.0,-7.0,1651025014499815.0,1
532,13.0,34.0,11.0,3.0,-2.0,3.0,2.0,5.0,1651025014521821.0,1
533,3.0,3.0,4.0,4.0,1.0,1.0,0.0,3.0,1651025014521821.0,1
534,-15.0,-29.0,-4.0,-2.0,-9.0,-2.0,-1.0,-3.0,1651025014522818.0,1
535,9.0,12.0,-4.0,-2.0,-2.0,-3.0,0.0,1.0,1651025014522818.0,1
536,18.0,37.0,13.0,9.0,10.0,6.0,5.0,7.0,1651025014536781.0,1
537,-22.0,-53.0,-7.0,-8.0,-8.0,-6.0,-7.0,-11.0,1651025014536781.0,1
538,3.0,-13.0,0.0,0.0,2.0,0.0,0.0,3.0,1651025014536781.0,1
539,3.0,23.0,7.0,1.0,-3.0,-1.0,0.0,1.0,1651025014536781.0,1
540,-5.0,-19.0,-3.0,3.0,5.0,0.0,3.0,2.0,1651025014558750.0,1
541,7.0,55.0,7.0,-1.0,0.0,-1.0,-1.0,-1.0,1651025014558750.0,1
542,-2.0,-21.0,-14.0,-8.0,-3.0,-2.0,-3.0,-2.0,1651025014559732.0,1
543,-23.0,-25.0,-10.0,-5.0,-6.0,-4.0,-5.0,-10.0,1651025014559732.0,1
544,-5.0,-11.0,-5.0,-3.0,-4.0,-2.0,-1.0,-1.0,1651025014581727.0,1
545,4.0,-7.0,-2.0,7.0,2.0,0.0,0.0,1.0,1651025014581727.0,1
546,0.0,10.0,1.0,-1.0,-1.0,-1.0,-2.0,-2.0,1651025014582663.0,1
547,2.0,-8.0,-9.0,0.0,3.0,2.0,2.0,3.0,1651025014582663.0,1
548,-7.0,-23.0,-12.0,-2.0,-2.0,-1.0,-2.0,-3.0,1651025014595979.0,1
549,4.0,9.0,1.0,0.0,3.0,2.0,2.0,1.0,1651025014595979.0,1
550,5.0,-8.0,-2.0,1.0,2.0,0.0,2.0,4.0,1651025014603865.0,1
551,11.0,-22.0,11.0,-1.0,-5.0,-2.0,1.0,0.0,1651025014603865.0,1
552,7.0,18.0,4.0,-2.0,-1.0,-2.0,-1.0,-2.0,1651025014618824.0,1
553,7.0,-9.0,-1.0,3.0,2.0,1.0,3.0,4.0,1651025014618824.0,1
554,-18.0,-40.0,-9.0,-6.0,0.0,-1.0,-2.0,-5.0,1651025014619822.0,1
555,8.0,32.0,6.0,2.0,-2.0,1.0,1.0,4.0,1651025014619822.0,1
556,-8.0,-5.0,-3.0,-6.0,-2.0,-3.0,-3.0,-5.0,1651025014641944.0,1
557,5.0,13.0,4.0,1.0,-1.0,0.0,1.0,0.0,1651025014641944.0,1
558,14.0,31.0,11.0,3.0,2.0,3.0,2.0,4.0,1651025014642879.0,1
559,-27.0,-45.0,-11.0,-6.0,-7.0,-4.0,-6.0,-9.0,1651025014642879.0,1
560,-1.0,-2.0,-4.0,-1.0,-2.0,0.0,0.0,0.0,1651025014655844.0,1
561,-3.0,-12.0,-3.0,1.0,1.0,-1.0,0.0,1.0,1651025014655844.0,1
562,-5.0,48.0,-1.0,-6.0,-3.0,0.0,-2.0,-2.0,1651025014663823.0,1
563,6.0,-27.0,-3.0,1.0,0.0,0.0,1.0,1.0,1651025014663823.0,1
564,-6.0,-7.0,-7.0,-2.0,-5.0,-3.0,-3.0,-4.0,1651025014678848.0,1
565,-8.0,2.0,0.0,-1.0,3.0,0.0,-1.0,-3.0,1651025014678848.0,1
566,-1.0,-8.0,-7.0,-5.0,-3.0,-1.0,1.0,0.0,1651025014679781.0,1
567,5.0,13.0,12.0,9.0,7.0,4.0,3.0,3.0,1651025014679781.0,1
568,4.0,9.0,2.0,-1.0,-1.0,-2.0,-1.0,0.0,1651025014701746.0,1
569,0.0,2.0,5.0,5.0,-1.0,2.0,0.0,-1.0,1651025014701746.0,1
570,-10.0,-29.0,-12.0,-9.0,-2.0,-5.0,-3.0,-4.0,1651025014702721.0,1
571,7.0,-9.0,3.0,1.0,-6.0,-1.0,2.0,3.0,1651025014702721.0,1
572,-7.0,-16.0,8.0,-1.0,6.0,3.0,2.0,0.0,1651025014715816.0,1
573,-2.0,6.0,1.0,-2.0,0.0,1.0,-1.0,-1.0,1651025014715816.0,1
574,5.0,-25.0,1.0,4.0,2.0,1.0,2.0,2.0,1651025014723664.0,1
575,-15.0,18.0,-1.0,-7.0,-6.0,-4.0,-4.0,-7.0,1651025014723664.0,1
576,5.0,5.0,6.0,4.0,3.0,3.0,2.0,2.0,1651025014738633.0,1
577,0.0,-6.0,-7.0,-3.0,-3.0,-1.0,-1.0,0.0,1651025014738633.0,1
578,0.0,0.0,-1.0,1.0,1.0,-1.0,1.0,0.0,1651025014739688.0,1
579,4.0,-34.0,-8.0,1.0,3.0,1.0,1.0,3.0,1651025014739688.0,1
580,-8.0,6.0,-1.0,-2.0,-4.0,-1.0,-6.0,-6.0,1651025014761636.0,1
581,-2.0,11.0,-1.0,-4.0,-2.0,0.0,0.0,-1.0,1651025014761636.0,1
582,2.0,-2.0,-2.0,0.0,-1.0,0.0,2.0,2.0,1651025014762569.0,1
583,1.0,-62.0,-6.0,1.0,0.0,-2.0,-3.0,-1.0,1651025014762569.0,1
584,-2.0,49.0,7.0,0.0,-2.0,-2.0,-3.0,-2.0,1651025014775604.0,1
585,-2.0,-8.0,-6.0,0.0,0.0,-2.0,-1.0,-1.0,1651025014775604.0,1
586,-2.0,3.0,1.0,2.0,0.0,1.0,-1.0,-1.0,1651025014783513.0,1
587,4.0,-11.0,-1.0,-3.0,1.0,1.0,2.0,2.0,1651025014783513.0,1
588,7.0,-2.0,3.0,0.0,-1.0,1.0,-1.0,2.0,1651025014798659.0,1
589,-5.0,-16.0,0.0,-4.0,-1.0,1.0,-1.0,0.0,1651025014798659.0,1
590,4.0,35.0,12.0,11.0,4.0,0.0,0.0,-1.0,1651025014799594.0,1
591,1.0,27.0,-3.0,-4.0,-3.0,-3.0,-2.0,0.0,1651025014799594.0,1
592,13.0,3.0,-2.0,5.0,0.0,1.0,3.0,5.0,1651025014822458.0,1
593,-14.0,-41.0,-7.0,-3.0,0.0,-3.0,0.0,-4.0,1651025014822458.0,1
594,-5.0,-29.0,2.0,-2.0,0.0,2.0,3.0,-1.0,1651025014822458.0,1
595,1.0,19.0,4.0,0.0,0.0,0.0,1.0,2.0,1651025014822458.0,1
596,-6.0,15.0,3.0,1.0,-2.0,-1.0,-1.0,-1.0,1651025014835420.0,1
597,9.0,27.0,3.0,0.0,-3.0,2.0,1.0,2.0,1651025014835420.0,1
598,-1.0,-2.0,-5.0,-3.0,1.0,1.0,-3.0,-2.0,1651025014844406.0,1
599,0.0,1.0,-1.0,1.0,-1.0,-1.0,-3.0,-1.0,1651025014844406.0,1
600,-1.0,-13.0,-3.0,-2.0,1.0,0.0,0.0,1.0,1651025014859021.0,1
601,13.0,22.0,5.0,1.0,-1.0,0.0,1.0,3.0,1651025014859021.0,1
602,-22.0,-7.0,-5.0,-3.0,-4.0,-6.0,-7.0,-11.0,1651025014859950.0,1
603,6.0,32.0,5.0,-1.0,2.0,2.0,1.0,2.0,1651025014859950.0,1
604,1.0,0.0,-3.0,-4.0,-6.0,-1.0,0.0,-3.0,1651025014882035.0,1
605,15.0,12.0,1.0,0.0,0.0,-1.0,0.0,2.0,1651025014882035.0,1
606,4.0,0.0,5.0,13.0,5.0,3.0,3.0,1.0,1651025014883035.0,1
607,1.0,11.0,2.0,1.0,1.0,0.0,-2.0,-1.0,1651025014883035.0,1
608,-7.0,-28.0,-9.0,-2.0,-2.0,-2.0,-1.0,-3.0,1651025014896057.0,1
609,-4.0,14.0,-1.0,-5.0,-3.0,-2.0,2.0,0.0,1651025014896057.0,1
610,2.0,5.0,-8.0,-10.0,-6.0,-1.0,-1.0,0.0,1651025014903980.0,1
611,-6.0,-24.0,-4.0,0.0,-2.0,-2.0,-3.0,-5.0,1651025014903980.0,1
612,9.0,0.0,7.0,1.0,1.0,1.0,2.0,2.0,1651025014919061.0,1
613,3.0,5.0,0.0,4.0,2.0,-1.0,-1.0,1.0,1651025014919061.0,1
614,-1.0,-22.0,-4.0,-2.0,-1.0,0.0,0.0,0.0,1651025014919061.0,1
615,1.0,16.0,3.0,-3.0,-3.0,-1.0,1.0,-2.0,1651025014919061.0,1
616,-2.0,-8.0,-1.0,-1.0,1.0,0.0,1.0,0.0,1651025014942060.0,1
617,-3.0,-40.0,-7.0,1.0,0.0,1.0,-2.0,-1.0,1651025014942060.0,1
618,5.0,23.0,2.0,-2.0,0.0,2.0,1.0,3.0,1651025014943020.0,1
619,1.0,5.0,-1.0,3.0,2.0,0.0,3.0,2.0,1651025014943020.0,1
620,-8.0,2.0,2.0,1.0,-2.0,-2.0,-3.0,-3.0,1651025014964902.0,1
621,-12.0,-42.0,-8.0,-4.0,1.0,0.0,1.0,-2.0,1651025014964902.0,1
622,15.0,8.0,1.0,-2.0,2.0,0.0,1.0,5.0,1651025014964902.0,1
623,-7.0,-5.0,-10.0,-4.0,-5.0,-4.0,-5.0,-6.0,1651025014964902.0,1
624,2.0,4.0,3.0,3.0,2.0,-1.0,-2.0,0.0,1651025014978895.0,1
625,-6.0,11.0,1.0,-2.0,-4.0,-2.0,-1.0,-1.0,1651025014978895.0,1
626,-3.0,-16.0,-2.0,3.0,-2.0,0.0,-1.0,-1.0,1651025014979865.0,1
627,0.0,-22.0,-2.0,-2.0,1.0,2.0,0.0,1.0,1651025014979865.0,1
628,-4.0,-11.0,-4.0,-4.0,-1.0,-3.0,-3.0,-1.0,1651025015002524.0,1
629,2.0,40.0,6.0,4.0,-1.0,-1.0,-2.0,-3.0,1651025015002524.0,1
630,-2.0,-13.0,-2.0,0.0,-2.0,-3.0,-3.0,-3.0,1651025015002524.0,1
631,-4.0,5.0,4.0,3.0,1.0,2.0,1.0,-2.0,1651025015002524.0,1
632,-2.0,1.0,-5.0,-5.0,-3.0,-1.0,-1.0,-1.0,1651025015024878.0,1
633,1.0,2.0,3.0,1.0,0.0,0.0,0.0,1.0,1651025015024878.0,1
634,1.0,12.0,4.0,-1.0,-1.0,0.0,0.0,0.0,1651025015024878.0,1
635,2.0,8.0,-3.0,-2.0,0.0,-1.0,-1.0,0.0,1651025015024878.0,1
636,4.0,-18.0,-4.0,0.0,0.0,-1.0,1.0,-1.0,1651025015038902.0,1
637,-2.0,18.0,2.0,-2.0,0.0,1.0,-2.0,-2.0,1651025015038902.0,1
638,-10.0,-34.0,-13.0,-10.0,-4.0,-5.0,-6.0,-8.0,1651025015039861.0,1
639,1.0,11.0,2.0,0.0,-5.0,-1.0,-2.0,0.0,1651025015039861.0,1
640,5.0,9.0,1.0,1.0,3.0,1.0,1.0,2.0,1651025015061958.0,1
641,-3.0,-31.0,-5.0,1.0,2.0,1.0,1.0,-1.0,1651025015061958.0,1
642,5.0,21.0,5.0,3.0,-1.0,0.0,2.0,2.0,1651025015062892.0,1
643,3.0,-2.0,4.0,1.0,2.0,0.0,3.0,3.0,1651025015062892.0,1
644,-12.0,-13.0,-7.0,-4.0,-5.0,-2.0,-4.0,-7.0,1651025015084829.0,1
645,-2.0,7.0,0.0,0.0,-1.0,-1.0,-1.0,1.0,1651025015084829.0,1
646,-6.0,-34.0,-6.0,0.0,2.0,0.0,0.0,0.0,1651025015084829.0,1
647,5.0,7.0,1.0,-2.0,-2.0,-1.0,1.0,1.0,1651025015084829.0,1
648,2.0,22.0,3.0,-1.0,0.0,0.0,0.0,1.0,1651025015098856.0,1
649,-3.0,-1.0,-4.0,-2.0,-1.0,0.0,0.0,-3.0,1651025015098856.0,1
650,0.0,8.0,0.0,0.0,-1.0,1.0,1.0,2.0,1651025015099790.0,1
651,2.0,9.0,2.0,1.0,1.0,-2.0,0.0,1.0,1651025015099790.0,1
652,-1.0,-8.0,1.0,-1.0,1.0,-1.0,-2.0,-2.0,1651025015121730.0,1
653,2.0,2.0,-1.0,0.0,0.0,-1.0,2.0,-1.0,1651025015121730.0,1
654,3.0,13.0,2.0,0.0,0.0,0.0,0.0,-1.0,1651025015122729.0,1
655,-4.0,-8.0,-4.0,-1.0,-1.0,-2.0,0.0,-1.0,1651025015122729.0,1
656,0.0,5.0,-2.0,0.0,0.0,-1.0,2.0,1.0,1651025015144467.0,1
657,0.0,-3.0,3.0,0.0,-2.0,-1.0,-1.0,0.0,1651025015144467.0,1
658,8.0,9.0,3.0,1.0,-1.0,-1.0,-2.0,2.0,1651025015145463.0,1
659,-2.0,-28.0,-7.0,-2.0,1.0,0.0,1.0,0.0,1651025015145463.0,1
660,3.0,46.0,13.0,2.0,-1.0,1.0,0.0,2.0,1651025015158429.0,1
661,5.0,27.0,11.0,-1.0,-2.0,-2.0,-2.0,-3.0,1651025015158429.0,1
662,-11.0,-25.0,-11.0,1.0,-1.0,-2.0,-3.0,-1.0,1651025015159426.0,1
663,0.0,8.0,-1.0,0.0,-1.0,-1.0,-4.0,-7.0,1651025015159426.0,1
664,1.0,-20.0,-5.0,-1.0,0.0,-3.0,3.0,1.0,1651025015182396.0,1
665,-2.0,-13.0,-4.0,-2.0,0.0,0.0,0.0,-1.0,1651025015182396.0,1
666,3.0,11.0,4.0,1.0,0.0,0.0,0.0,0.0,1651025015182396.0,1
667,3.0,23.0,4.0,-4.0,-1.0,1.0,0.0,2.0,1651025015182396.0,1
668,1.0,-10.0,-7.0,3.0,-2.0,0.0,-1.0,0.0,1651025015204306.0,1
669,-7.0,-49.0,-5.0,2.0,2.0,2.0,1.0,0.0,1651025015204306.0,1
670,8.0,16.0,7.0,1.0,-1.0,1.0,1.0,3.0,1651025015205303.0,1
671,-1.0,0.0,0.0,-4.0,-2.0,-1.0,0.0,0.0,1651025015205303.0,1
672,1.0,9.0,1.0,-2.0,-3.0,0.0,-1.0,-1.0,1651025015219266.0,1
673,-6.0,2.0,-3.0,6.0,8.0,1.0,0.0,0.0,1651025015219266.0,1
674,1.0,6.0,0.0,-2.0,2.0,0.0,0.0,-1.0,1651025015219266.0,1
675,-6.0,-13.0,1.0,1.0,0.0,3.0,-1.0,-3.0,1651025015219266.0,1
676,3.0,6.0,3.0,-5.0,-1.0,-3.0,-1.0,-1.0,1651025015242230.0,1
677,6.0,22.0,-1.0,-4.0,-8.0,-2.0,-1.0,0.0,1651025015242230.0,1
678,-6.0,-21.0,-3.0,-4.0,0.0,-1.0,0.0,-2.0,1651025015243202.0,1
679,0.0,18.0,2.0,-3.0,-4.0,0.0,0.0,2.0,1651025015243202.0,1
680,-17.0,-83.0,-10.0,9.0,-1.0,-2.0,-3.0,-3.0,1651025015264342.0,1
681,-1.0,10.0,-1.0,0.0,19.0,6.0,-2.0,-1.0,1651025015264342.0,1
682,2.0,14.0,3.0,0.0,-6.0,-2.0,-1.0,-1.0,1651025015265342.0,1
683,2.0,-11.0,-1.0,-1.0,-1.0,-1.0,0.0,0.0,1651025015265342.0,1
684,2.0,16.0,2.0,-2.0,-7.0,0.0,0.0,1.0,1651025015278948.0,1
685,-1.0,-1.0,0.0,-1.0,-7.0,-4.0,-1.0,-2.0,1651025015278948.0,1
686,-4.0,-12.0,-3.0,0.0,2.0,2.0,-2.0,-2.0,1651025015279907.0,1
687,0.0,-9.0,-5.0,2.0,-2.0,-2.0,-1.0,0.0,1651025015279907.0,1
688,-7.0,2.0,-3.0,-4.0,2.0,1.0,-2.0,-1.0,1651025015301849.0,1
689,-1.0,-8.0,-4.0,-3.0,-2.0,-2.0,-1.0,1.0,1651025015301849.0,1
690,4.0,23.0,2.0,0.0,0.0,-1.0,1.0,0.0,1651025015302846.0,1
691,-5.0,-4.0,-3.0,3.0,-2.0,-2.0,-2.0,-2.0,1651025015302846.0,1
692,4.0,8.0,-2.0,-1.0,8.0,0.0,-1.0,-2.0,1651025015324930.0,1
693,0.0,-11.0,-3.0,-3.0,-4.0,-1.0,-1.0,0.0,1651025015324930.0,1
694,-3.0,1.0,-2.0,-1.0,-5.0,-2.0,-1.0,-2.0,1651025015324930.0,1
695,4.0,17.0,5.0,-3.0,-1.0,0.0,-2.0,0.0,1651025015324930.0,1
696,-4.0,-10.0,0.0,1.0,0.0,-1.0,-1.0,-1.0,1651025015338915.0,1
697,3.0,4.0,-1.0,-3.0,-5.0,-2.0,-2.0,0.0,1651025015338915.0,1
698,3.0,24.0,3.0,2.0,-1.0,0.0,2.0,1.0,1651025015339845.0,1
699,7.0,-9.0,-2.0,1.0,3.0,0.0,2.0,0.0,1651025015339845.0,1
700,4.0,1.0,-2.0,-6.0,-14.0,-8.0,-1.0,-1.0,1651025015361853.0,1
701,1.0,14.0,4.0,0.0,5.0,7.0,0.0,-1.0,1651025015361853.0,1
702,-2.0,3.0,3.0,4.0,19.0,5.0,0.0,0.0,1651025015362784.0,1
703,-2.0,-4.0,1.0,1.0,-6.0,-3.0,0.0,1.0,1651025015362784.0,1
704,2.0,4.0,1.0,-4.0,-1.0,-1.0,0.0,1.0,1651025015384769.0,1
705,-8.0,-19.0,-3.0,7.0,-10.0,-5.0,-1.0,-2.0,1651025015384769.0,1
706,0.0,-12.0,-5.0,-5.0,-5.0,-3.0,-1.0,-1.0,1651025015385768.0,1
707,-7.0,-2.0,-1.0,0.0,6.0,3.0,-2.0,-1.0,1651025015385768.0,1
708,2.0,0.0,-4.0,-3.0,-2.0,0.0,0.0,1.0,1651025015398796.0,1
709,0.0,11.0,-1.0,-4.0,-10.0,-8.0,-2.0,-1.0,1651025015398796.0,1
710,1.0,1.0,-1.0,0.0,9.0,8.0,-1.0,0.0,1651025015399730.0,1
711,0.0,-10.0,-4.0,-4.0,-4.0,-5.0,-1.0,-2.0,1651025015399730.0,1
712,-13.0,2.0,-2.0,-1.0,-2.0,-1.0,-3.0,-6.0,1651025015420794.0,1
713,2.0,-4.0,-1.0,0.0,4.0,-1.0,0.0,-1.0,1651025015420794.0,1
714,1.0,1.0,2.0,0.0,-5.0,-5.0,-1.0,0.0,1651025015421791.0,1
715,1.0,1.0,-1.0,-4.0,-16.0,-3.0,1.0,-1.0,1651025015421791.0,1
716,4.0,5.0,1.0,-1.0,22.0,5.0,1.0,2.0,1651025015444730.0,1
717,2.0,28.0,8.0,2.0,6.0,5.0,-1.0,1.0,1651025015444730.0,1
718,-8.0,-37.0,-11.0,-6.0,-12.0,-5.0,0.0,-2.0,1651025015444730.0,1
719,1.0,7.0,1.0,3.0,5.0,2.0,0.0,4.0,1651025015444730.0,1
720,-2.0,13.0,5.0,5.0,-4.0,1.0,-2.0,-4.0,1651025015458694.0,1
721,-1.0,-2.0,-1.0,1.0,2.0,-1.0,-2.0,0.0,1651025015458694.0,1
722,2.0,3.0,0.0,-1.0,1.0,0.0,1.0,3.0,1651025015459691.0,1
723,-3.0,-1.0,-2.0,-4.0,-6.0,-1.0,-1.0,-3.0,1651025015459691.0,1
724,4.0,7.0,-1.0,-1.0,-5.0,-1.0,2.0,1.0,1651025015481697.0,1
725,1.0,-7.0,-2.0,7.0,6.0,1.0,1.0,0.0,1651025015481697.0,1
726,1.0,-7.0,-2.0,-1.0,-5.0,-1.0,0.0,2.0,1651025015481697.0,1
727,-15.0,-5.0,-2.0,-6.0,3.0,-2.0,-4.0,-7.0,1651025015481697.0,1
728,0.0,-1.0,1.0,2.0,1.0,2.0,2.0,1.0,1651025015504608.0,1
729,-1.0,-5.0,-1.0,1.0,-1.0,1.0,-1.0,-1.0,1651025015504608.0,1
730,5.0,13.0,6.0,2.0,-3.0,-3.0,-1.0,-1.0,1651025015505587.0,1
731,1.0,-6.0,0.0,3.0,3.0,1.0,-1.0,3.0,1651025015505587.0,1
732,2.0,0.0,-5.0,-5.0,1.0,2.0,-1.0,1.0,1651025015518544.0,1
733,-3.0,-2.0,-2.0,-9.0,-17.0,-7.0,-1.0,-2.0,1651025015518544.0,1
734,-1.0,4.0,3.0,4.0,15.0,-1.0,-1.0,-1.0,1651025015526530.0,1
735,2.0,2.0,1.0,4.0,6.0,3.0,0.0,-1.0,1651025015526530.0,1
736,-2.0,-19.0,-7.0,-1.0,-7.0,-3.0,0.0,1.0,1651025015541544.0,1
737,-4.0,-24.0,-5.0,-2.0,3.0,3.0,1.0,0.0,1651025015541544.0,1
738,-6.0,-3.0,-1.0,-2.0,-3.0,-1.0,-2.0,-2.0,1651025015542534.0,1
739,3.0,4.0,2.0,3.0,3.0,1.0,0.0,1.0,1651025015542534.0,1
740,-3.0,-7.0,-3.0,2.0,-2.0,-4.0,-3.0,-1.0,1651025015564902.0,1
741,1.0,8.0,0.0,-2.0,-4.0,-2.0,-1.0,0.0,1651025015564902.0,1
742,1.0,1.0,-1.0,-4.0,-2.0,1.0,-1.0,0.0,1651025015564902.0,1
743,-2.0,2.0,-1.0,1.0,-1.0,-2.0,0.0,-1.0,1651025015564902.0,1
744,2.0,-4.0,4.0,-1.0,0.0,0.0,0.0,0.0,1651025015577937.0,1
745,6.0,24.0,2.0,-6.0,-1.0,-3.0,0.0,-1.0,1651025015577937.0,1
746,-5.0,1.0,-1.0,-5.0,2.0,1.0,0.0,-3.0,1651025015585919.0,1
747,4.0,1.0,-1.0,5.0,-5.0,-2.0,-1.0,2.0,1651025015585919.0,1
748,2.0,9.0,0.0,0.0,-4.0,-3.0,1.0,2.0,1651025015600943.0,1
749,-5.0,-19.0,-8.0,-5.0,19.0,6.0,-1.0,0.0,1651025015600943.0,1
750,0.0,-7.0,3.0,8.0,-9.0,-3.0,1.0,0.0,1651025015601876.0,1
751,3.0,6.0,2.0,-2.0,1.0,-1.0,1.0,-1.0,1651025015601876.0,1
752,1.0,10.0,-1.0,-5.0,-7.0,-1.0,-1.0,-2.0,1651025015624961.0,1
753,-3.0,-1.0,2.0,-6.0,-9.0,-3.0,0.0,-1.0,1651025015624961.0,1
754,11.0,34.0,4.0,5.0,3.0,2.0,1.0,2.0,1651025015624961.0,1
755,-4.0,-22.0,-2.0,-2.0,-4.0,-6.0,1.0,0.0,1651025015624961.0,1
756,3.0,7.0,2.0,-3.0,4.0,5.0,-1.0,-1.0,1651025015637951.0,1
757,0.0,-4.0,0.0,4.0,2.0,2.0,1.0,0.0,1651025015637951.0,1
758,-1.0,9.0,1.0,-3.0,-4.0,0.0,-1.0,0.0,1651025015646555.0,1
759,2.0,-4.0,-3.0,-1.0,0.0,0.0,0.0,1.0,1651025015646555.0,1
760,-7.0,-18.0,-3.0,-2.0,3.0,-2.0,-1.0,-1.0,1651025015661631.0,1
761,-1.0,20.0,1.0,-1.0,-6.0,-2.0,-3.0,-2.0,1651025015661631.0,1
762,-2.0,-21.0,-5.0,0.0,0.0,-2.0,-2.0,-2.0,1651025015661631.0,1
763,2.0,-2.0,-2.0,-3.0,0.0,-1.0,-3.0,0.0,1651025015661631.0,1
764,1.0,36.0,6.0,-3.0,0.0,1.0,1.0,-1.0,1651025015691915.0,1
765,-3.0,-31.0,-8.0,-1.0,-13.0,-6.0,1.0,1.0,1651025015691915.0,1
766,0.0,11.0,5.0,9.0,23.0,6.0,0.0,-2.0,1651025015692901.0,1
767,-6.0,-3.0,3.0,-1.0,-4.0,2.0,0.0,0.0,1651025015692901.0,1
768,10.0,48.0,8.0,0.0,-1.0,-1.0,-1.0,0.0,1651025015697915.0,1
769,-8.0,-53.0,-13.0,-5.0,-11.0,-2.0,-2.0,-1.0,1651025015697915.0,1
770,-2.0,-34.0,-10.0,-3.0,-7.0,-4.0,-1.0,0.0,1651025015705893.0,1
771,4.0,30.0,-1.0,5.0,11.0,4.0,1.0,2.0,1651025015705893.0,1
772,-5.0,-27.0,-10.0,-7.0,-5.0,-3.0,-4.0,-2.0,1651025015720947.0,1
773,3.0,16.0,16.0,33.0,18.0,6.0,3.0,-1.0,1651025015720947.0,1
774,-11.0,0.0,2.0,-5.0,-4.0,2.0,3.0,1.0,1651025015721943.0,1
775,5.0,21.0,-2.0,-1.0,-7.0,-5.0,-5.0,-5.0,1651025015721943.0,1
776,-4.0,-27.0,-3.0,-5.0,1.0,0.0,0.0,3.0,1651025015744929.0,1
777,7.0,51.0,1.0,-16.0,-12.0,-5.0,-3.0,-1.0,1651025015744929.0,1
778,-3.0,-50.0,-15.0,3.0,11.0,3.0,3.0,3.0,1651025015744929.0,1
779,1.0,-1.0,3.0,3.0,8.0,3.0,1.0,-1.0,1651025015744929.0,1
780,-7.0,-11.0,5.0,7.0,-5.0,-2.0,-3.0,-4.0,1651025015757913.0,1
781,-3.0,4.0,2.0,-6.0,0.0,-3.0,-3.0,-6.0,1651025015757913.0,1
782,2.0,17.0,4.0,-5.0,-21.0,-2.0,-1.0,-1.0,1651025015765964.0,1
783,-1.0,-3.0,0.0,-12.0,-10.0,-9.0,-3.0,-1.0,1651025015765964.0,1
784,-1.0,-23.0,-8.0,16.0,22.0,6.0,-1.0,0.0,1651025015781052.0,1
785,-1.0,-4.0,-2.0,8.0,5.0,5.0,1.0,1.0,1651025015781052.0,1
786,3.0,-2.0,-4.0,-1.0,-4.0,-3.0,1.0,-1.0,1651025015781981.0,1
787,-5.0,-10.0,-3.0,-12.0,-16.0,-1.0,1.0,-3.0,1651025015781981.0,1
788,-1.0,12.0,11.0,15.0,-13.0,-4.0,-2.0,-2.0,1651025015819898.0,1
789,-8.0,-22.0,-10.0,-10.0,16.0,-4.0,-4.0,-2.0,1651025015819898.0,1
790,4.0,21.0,-7.0,-30.0,-14.0,-2.0,-2.0,-2.0,1651025015820897.0,1
791,1.0,-1.0,9.0,42.0,21.0,6.0,3.0,0.0,1651025015820897.0,1
792,-1.0,-13.0,-5.0,0.0,-1.0,1.0,4.0,4.0,1651025015822916.0,1
793,2.0,12.0,1.0,-7.0,-5.0,-3.0,0.0,-1.0,1651025015822916.0,1
794,-5.0,-3.0,4.0,-7.0,-8.0,-4.0,-3.0,-1.0,1651025015825910.0,1
795,-3.0,-9.0,-30.0,-82.0,-24.0,-5.0,-3.0,0.0,1651025015825910.0,1
796,-4.0,11.0,-2.0,7.0,-18.0,-5.0,-4.0,-6.0,1651025015840841.0,1
797,1.0,-31.0,-10.0,68.0,27.0,8.0,4.0,2.0,1651025015840841.0,1
798,0.0,32.0,4.0,-1.0,34.0,11.0,-1.0,-1.0,1651025015841839.0,1
799,-5.0,-12.0,5.0,33.0,4.0,0.0,4.0,-1.0,1651025015841839.0,1
800,5.0,9.0,0.0,-46.0,-11.0,-3.0,2.0,2.0,1651025015864504.0,1
801,-3.0,-3.0,-14.0,-19.0,-24.0,-11.0,-8.0,-5.0,1651025015864504.0,1
802,-3.0,-14.0,-17.0,-3.0,-18.0,-7.0,-2.0,2.0,1651025015865434.0,1
803,-4.0,-10.0,0.0,-7.0,3.0,1.0,-1.0,-1.0,1651025015865434.0,1
804,3.0,10.0,23.0,18.0,15.0,8.0,1.0,2.0,1651025015887387.0,1
805,2.0,13.0,-11.0,-32.0,-16.0,-3.0,2.0,2.0,1651025015887387.0,1
806,-6.0,-11.0,-18.0,-10.0,-1.0,-4.0,-4.0,-7.0,1651025015887870.0,1
807,6.0,-1.0,-15.0,19.0,15.0,2.0,2.0,-9.0,1651025015887870.0,1
808,-2.0,-23.0,27.0,0.0,-5.0,-4.0,4.0,12.0,1651025015900905.0,1
809,-4.0,39.0,-1.0,8.0,7.0,9.0,3.0,2.0,1651025015900905.0,0
810,-9.0,-9.0,38.0,0.0,-16.0,-26.0,-1.0,6.0,1651025015901835.0,2
811,8.0,14.0,16.0,-3.0,-9.0,-62.0,-24.0,8.0,1651025015901835.0,2
812,10.0,30.0,-2.0,17.0,23.0,83.0,32.0,1.0,1651025015924466.0,2
813,-1.0,-31.0,36.0,2.0,-6.0,-56.0,3.0,-4.0,1651025015924466.0,2
814,15.0,-5.0,-62.0,-21.0,-10.0,12.0,-24.0,24.0,1651025015925397.0,2
815,-29.0,-50.0,-26.0,-7.0,12.0,91.0,32.0,-20.0,1651025015925397.0,2
816,6.0,25.0,61.0,26.0,11.0,-41.0,-16.0,8.0,1651025015947405.0,2
817,6.0,-13.0,-48.0,-2.0,-5.0,-38.0,-22.0,12.0,1651025015947405.0,2
818,-46.0,-30.0,47.0,-2.0,-14.0,-43.0,-45.0,-76.0,1651025015947405.0,2
819,18.0,28.0,-8.0,-1.0,9.0,43.0,-36.0,54.0,1651025015947405.0,2
820,8.0,-31.0,10.0,26.0,1.0,30.0,16.0,-53.0,1651025015961368.0,2
821,-2.0,9.0,-73.0,-37.0,-25.0,-65.0,3.0,42.0,1651025015961368.0,2
822,27.0,-20.0,65.0,25.0,9.0,-17.0,19.0,-20.0,1651025015969280.0,2
823,-26.0,35.0,56.0,6.0,-6.0,46.0,72.0,70.0,1651025015969280.0,2
824,2.0,-28.0,-30.0,-22.0,-27.0,-12.0,-100.0,-102.0,1651025015984239.0,2
825,30.0,58.0,-28.0,6.0,32.0,25.0,-19.0,1.0,1651025015984239.0,2
826,-29.0,31.0,-31.0,-12.0,-26.0,-76.0,-11.0,-6.0,1651025015985236.0,2
827,-6.0,-106.0,-94.0,-56.0,-7.0,24.0,-8.0,-59.0,1651025015985236.0,2
828,19.0,17.0,24.0,45.0,25.0,-7.0,40.0,100.0,1651025016007246.0,2
829,1.0,10.0,75.0,22.0,-7.0,12.0,13.0,-62.0,1651025016007246.0,2
830,19.0,-31.0,-70.0,-16.0,1.0,21.0,4.0,66.0,1651025016008175.0,2
831,29.0,54.0,85.0,59.0,22.0,-18.0,51.0,40.0,1651025016008175.0,2
832,-43.0,-47.0,-75.0,-15.0,9.0,-30.0,-15.0,8.0,1651025016021205.0,2
833,-12.0,-24.0,-17.0,-14.0,-1.0,54.0,-9.0,-77.0,1651025016021205.0,2
834,-47.0,-70.0,-50.0,-10.0,4.0,9.0,-22.0,4.0,1651025016022138.0,2
835,11.0,29.0,88.0,25.0,-7.0,-6.0,14.0,25.0,1651025016022138.0,2
836,-3.0,40.0,-102.0,-70.0,-18.0,-2.0,17.0,-6.0,1651025016044932.0,2
837,-42.0,-70.0,26.0,-4.0,-9.0,-9.0,38.0,42.0,1651025016044932.0,2
838,31.0,72.0,36.0,21.0,16.0,61.0,-14.0,-38.0,1651025016044932.0,2
839,0.0,12.0,-44.0,-12.0,-7.0,-56.0,-71.0,-34.0,1651025016044932.0,2
840,-32.0,-17.0,3.0,-14.0,-21.0,-31.0,-69.0,-48.0,1651025016067437.0,2
841,0.0,-17.0,39.0,1.0,21.0,38.0,15.0,9.0,1651025016067437.0,2
842,11.0,36.0,19.0,26.0,11.0,7.0,46.0,6.0,1651025016067897.0,2
843,-10.0,-15.0,-53.0,-17.0,-17.0,-54.0,-35.0,-31.0,1651025016067897.0,2
844,37.0,93.0,74.0,15.0,19.0,53.0,-12.0,-4.0,1651025016080932.0,2
845,-11.0,40.0,3.0,-13.0,-32.0,-13.0,20.0,5.0,1651025016080932.0,2
846,23.0,-83.0,-27.0,6.0,18.0,14.0,-24.0,-6.0,1651025016081861.0,2
847,-32.0,-43.0,-33.0,-28.0,-14.0,-15.0,-22.0,-37.0,1651025016081861.0,2
848,13.0,14.0,-29.0,-21.0,-7.0,-19.0,18.0,25.0,1651025016104962.0,2
849,-11.0,-32.0,52.0,33.0,9.0,15.0,37.0,29.0,1651025016104962.0,2
850,37.0,53.0,-12.0,-1.0,-1.0,10.0,28.0,52.0,1651025016104962.0,2
851,-34.0,-19.0,2.0,0.0,1.0,-1.0,-13.0,2.0,1651025016104962.0,2
852,-20.0,-59.0,-37.0,-21.0,-11.0,-23.0,5.0,4.0,1651025016126867.0,2
853,36.0,93.0,41.0,11.0,-3.0,-56.0,-14.0,24.0,1651025016126867.0,2
854,-25.0,18.0,40.0,31.0,14.0,86.0,52.0,-25.0,1651025016127858.0,2
855,21.0,20.0,-19.0,-13.0,3.0,11.0,38.0,31.0,1651025016127858.0,2
856,-16.0,-38.0,-1.0,-10.0,-16.0,-65.0,14.0,-7.0,1651025016140890.0,2
857,0.0,38.0,-35.0,-23.0,2.0,87.0,5.0,-35.0,1651025016140890.0,2
858,8.0,4.0,53.0,23.0,8.0,-43.0,-17.0,39.0,1651025016141832.0,2
859,12.0,-17.0,-20.0,1.0,-3.0,-10.0,-28.0,-43.0,1651025016141832.0,2
860,-9.0,-31.0,-36.0,-10.0,2.0,6.0,67.0,63.0,1651025016164876.0,2
861,2.0,24.0,38.0,12.0,-11.0,-23.0,-36.0,-11.0,1651025016164876.0,2
862,-20.0,-44.0,-18.0,-23.0,-5.0,-18.0,-35.0,-36.0,1651025016164876.0,2
863,17.0,-12.0,18.0,3.0,9.0,13.0,3.0,-11.0,1651025016164876.0,2
864,13.0,60.0,-7.0,11.0,5.0,3.0,85.0,81.0,1651025016187389.0,2
865,13.0,-52.0,-27.0,3.0,5.0,3.0,-3.0,51.0,1651025016187389.0,2
866,-18.0,-27.0,16.0,1.0,-7.0,3.0,-13.0,-39.0,1651025016187389.0,2
867,30.0,49.0,17.0,22.0,11.0,-3.0,71.0,60.0,1651025016187389.0,2
868,-15.0,-6.0,-23.0,-16.0,-8.0,16.0,-21.0,-50.0,1651025016201337.0,2
869,-8.0,-8.0,-14.0,-7.0,-2.0,-4.0,-46.0,-30.0,1651025016201337.0,2
870,20.0,52.0,15.0,8.0,0.0,0.0,2.0,6.0,1651025016202333.0,2
871,-31.0,-27.0,31.0,2.0,2.0,-9.0,-33.0,-78.0,1651025016202333.0,2
872,26.0,78.0,22.0,20.0,17.0,43.0,61.0,81.0,1651025016224274.0,2
873,-32.0,-102.0,-15.0,10.0,-1.0,5.0,-1.0,-28.0,1651025016224274.0,2
874,-15.0,8.0,-65.0,-31.0,-11.0,-31.0,-4.0,22.0,1651025016225271.0,2
875,6.0,26.0,57.0,25.0,3.0,-15.0,-6.0,-13.0,1651025016225271.0,2
876,-23.0,-56.0,-11.0,-6.0,-6.0,-10.0,-28.0,-23.0,1651025016247408.0,2
877,25.0,27.0,28.0,9.0,19.0,25.0,20.0,19.0,1651025016247408.0,2
878,-13.0,-12.0,-13.0,-19.0,-16.0,-4.0,24.0,10.0,1651025016247897.0,2
879,1.0,-77.0,-62.0,-5.0,-2.0,-15.0,-1.0,32.0,1651025016247897.0,2
880,-2.0,-28.0,42.0,16.0,11.0,31.0,26.0,53.0,1651025016261862.0,2
881,9.0,27.0,-14.0,-28.0,-11.0,-23.0,-30.0,3.0,1651025016261862.0,2
882,-6.0,-49.0,-25.0,30.0,11.0,36.0,20.0,-5.0,1651025016261862.0,2
883,27.0,88.0,-1.0,-18.0,-5.0,5.0,16.0,86.0,1651025016261862.0,2
884,-19.0,-63.0,-6.0,1.0,-8.0,-29.0,-29.0,-41.0,1651025016284914.0,2
885,-7.0,-2.0,-9.0,-1.0,4.0,-8.0,-10.0,68.0,1651025016284914.0,2
886,37.0,103.0,26.0,1.0,5.0,12.0,-49.0,-27.0,1651025016284914.0,2
887,-51.0,-58.0,35.0,-9.0,-10.0,2.0,10.0,-10.0,1651025016284914.0,2
888,8.0,-20.0,-18.0,29.0,-3.0,-4.0,-76.0,-41.0,1651025016306988.0,2
889,-1.0,40.0,-44.0,-40.0,-3.0,-9.0,-13.0,-40.0,1651025016306988.0,2
890,6.0,29.0,42.0,17.0,12.0,-7.0,32.0,52.0,1651025016307919.0,2
891,-2.0,1.0,-30.0,17.0,-9.0,0.0,13.0,5.0,1651025016307919.0,2
892,4.0,-1.0,30.0,-20.0,2.0,-22.0,-31.0,-44.0,1651025016320884.0,2
893,-2.0,-45.0,-19.0,8.0,9.0,37.0,18.0,-13.0,1651025016320884.0,2
894,17.0,23.0,54.0,19.0,2.0,0.0,-64.0,-23.0,1651025016321884.0,2
895,12.0,-54.0,-14.0,-6.0,-6.0,-14.0,48.0,30.0,1651025016321884.0,2
896,-23.0,-1.0,-4.0,-12.0,-12.0,-18.0,4.0,14.0,1651025016344923.0,2
897,22.0,28.0,-29.0,4.0,6.0,11.0,1.0,33.0,1651025016344923.0,2
898,2.0,34.0,42.0,3.0,-7.0,-20.0,41.0,16.0,1651025016344923.0,2
899,0.0,-36.0,-18.0,11.0,8.0,13.0,9.0,12.0,1651025016344923.0,2
900,13.0,4.0,8.0,-6.0,-6.0,-7.0,-7.0,-4.0,1651025016367438.0,2
901,0.0,8.0,40.0,13.0,1.0,3.0,23.0,-4.0,1651025016367438.0,2
902,4.0,17.0,-25.0,-15.0,-1.0,-3.0,-31.0,-10.0,1651025016367897.0,2
903,-5.0,-22.0,-1.0,-1.0,-7.0,-8.0,-43.0,-28.0,1651025016367897.0,2
904,4.0,-1.0,14.0,-3.0,1.0,-6.0,-15.0,-11.0,1651025016380932.0,2
905,-2.0,41.0,15.0,13.0,-5.0,-8.0,-3.0,-20.0,1651025016380932.0,2
906,0.0,-14.0,34.0,9.0,12.0,-13.0,0.0,-5.0,1651025016381863.0,2
907,19.0,70.0,3.0,11.0,0.0,1.0,-15.0,-30.0,1651025016381863.0,2
908,6.0,28.0,21.0,-9.0,1.0,10.0,20.0,22.0,1651025016404870.0,2
909,32.0,-16.0,11.0,9.0,-1.0,-13.0,44.0,42.0,1651025016404870.0,2
910,-43.0,-58.0,-45.0,-23.0,-17.0,3.0,18.0,14.0,1651025016405808.0,2
911,-1.0,31.0,-11.0,-14.0,1.0,3.0,-74.0,-64.0,1651025016405808.0,2
912,11.0,-31.0,14.0,7.0,9.0,13.0,8.0,5.0,1651025016427091.0,2
913,2.0,66.0,18.0,1.0,-2.0,-7.0,8.0,-16.0,1651025016427091.0,2
914,-29.0,-65.0,-10.0,9.0,-7.0,-16.0,5.0,-8.0,1651025016428088.0,2
915,-13.0,-10.0,-15.0,-32.0,-9.0,-21.0,-3.0,-26.0,1651025016428088.0,2
916,27.0,117.0,13.0,15.0,1.0,-10.0,-7.0,7.0,1651025016441122.0,2
917,-36.0,-80.0,-13.0,4.0,9.0,78.0,27.0,-3.0,1651025016441122.0,2
918,15.0,41.0,4.0,3.0,-7.0,-29.0,-17.0,-31.0,1651025016442051.0,2
919,-16.0,-9.0,-5.0,-12.0,10.0,55.0,13.0,-27.0,1651025016442051.0,2
920,12.0,20.0,11.0,15.0,-6.0,-29.0,-26.0,7.0,1651025016464799.0,2
921,-6.0,22.0,-14.0,-23.0,-4.0,-15.0,-14.0,-34.0,1651025016464799.0,2
922,16.0,34.0,11.0,0.0,-8.0,4.0,104.0,94.0,1651025016465834.0,2
923,-17.0,17.0,23.0,14.0,-8.0,-28.0,-28.0,-18.0,1651025016465834.0,2
924,-21.0,-39.0,-51.0,-15.0,2.0,17.0,25.0,3.0,1651025016487521.0,2
925,11.0,27.0,14.0,8.0,14.0,-8.0,-4.0,-15.0,1651025016487521.0,2
926,12.0,-30.0,-22.0,-9.0,-6.0,-2.0,-38.0,-3.0,1651025016489503.0,2
927,-12.0,21.0,33.0,16.0,4.0,-10.0,-18.0,-43.0,1651025016489503.0,2
928,-9.0,-28.0,-63.0,-26.0,-11.0,-18.0,-2.0,-13.0,1651025016500536.0,2
929,6.0,12.0,70.0,35.0,2.0,-18.0,6.0,36.0,1651025016500536.0,2
930,-13.0,-86.0,-124.0,-76.0,-13.0,39.0,21.0,-18.0,1651025016509449.0,2
931,22.0,42.0,43.0,27.0,13.0,15.0,2.0,7.0,1651025016509449.0,2
932,-3.0,24.0,24.0,14.0,5.0,-2.0,7.0,-5.0,1651025016524491.0,2
933,-3.0,-34.0,-20.0,-17.0,-14.0,-12.0,17.0,1.0,1651025016524491.0,2
934,25.0,80.0,35.0,16.0,14.0,17.0,-6.0,-7.0,1651025016526488.0,2
935,-14.0,-5.0,-51.0,0.0,1.0,25.0,17.0,68.0,1651025016526488.0,2
936,-20.0,-7.0,3.0,-8.0,-7.0,-9.0,-37.0,-65.0,1651025016548882.0,2
937,-8.0,-41.0,-4.0,-8.0,-2.0,-6.0,-21.0,-15.0,1651025016548882.0,2
938,15.0,53.0,-16.0,-8.0,1.0,8.0,47.0,45.0,1651025016549874.0,2
939,-30.0,-88.0,6.0,14.0,1.0,-26.0,-13.0,30.0,1651025016549874.0,2
940,-9.0,68.0,20.0,6.0,-11.0,-3.0,-19.0,-47.0,1651025016560844.0,2
941,5.0,-28.0,-41.0,-10.0,11.0,14.0,37.0,52.0,1651025016560844.0,2
942,6.0,56.0,39.0,4.0,2.0,4.0,-51.0,-23.0,1651025016569823.0,2
943,21.0,12.0,-11.0,-9.0,-5.0,-3.0,14.0,-17.0,1651025016569823.0,2
944,-4.0,-75.0,26.0,20.0,0.0,-5.0,21.0,46.0,1651025016584939.0,2
945,-11.0,11.0,-10.0,-27.0,-13.0,14.0,-27.0,-15.0,1651025016584939.0,2
946,-21.0,-108.0,-61.0,7.0,7.0,3.0,14.0,5.0,1651025016585890.0,2
947,44.0,75.0,30.0,4.0,4.0,-18.0,-5.0,22.0,1651025016585890.0,2
948,-11.0,-43.0,10.0,-10.0,-4.0,12.0,-1.0,-35.0,1651025016606902.0,2
949,17.0,8.0,-10.0,6.0,-1.0,-19.0,-29.0,28.0,1651025016606902.0,2
950,-5.0,-8.0,14.0,6.0,6.0,18.0,5.0,-14.0,1651025016608829.0,2
951,12.0,-9.0,-27.0,-12.0,-6.0,1.0,34.0,32.0,1651025016608829.0,2
952,-18.0,48.0,-3.0,8.0,7.0,9.0,-21.0,-31.0,1651025016620947.0,2
953,-13.0,21.0,21.0,-4.0,-14.0,-37.0,-9.0,-10.0,1651025016620947.0,2
954,-8.0,6.0,22.0,12.0,-1.0,-7.0,-3.0,-13.0,1651025016629922.0,2
955,12.0,35.0,-25.0,-24.0,-22.0,4.0,10.0,-37.0,1651025016629922.0,2
956,-2.0,-40.0,3.0,9.0,36.0,-10.0,6.0,10.0,1651025016644009.0,2
957,-17.0,-40.0,-58.0,-14.0,-17.0,-11.0,-1.0,-18.0,1651025016644009.0,2
958,-8.0,9.0,22.0,8.0,3.0,11.0,7.0,14.0,1651025016651030.0,2
959,4.0,15.0,39.0,11.0,0.0,-2.0,-8.0,2.0,1651025016651030.0,2
960,6.0,-40.0,-19.0,-9.0,-6.0,17.0,-16.0,24.0,1651025016667075.0,2
961,-11.0,47.0,29.0,1.0,-5.0,-11.0,12.0,-22.0,1651025016667075.0,2
962,-1.0,-20.0,-21.0,-5.0,-7.0,-14.0,-16.0,-23.0,1651025016668102.0,2
963,0.0,4.0,-1.0,12.0,7.0,21.0,5.0,11.0,1651025016668102.0,2
964,12.0,5.0,-5.0,-14.0,-8.0,0.0,-8.0,10.0,1651025016681097.0,2
965,10.0,52.0,62.0,21.0,-3.0,-13.0,-25.0,-22.0,1651025016681097.0,2
966,-10.0,-31.0,-30.0,-23.0,-8.0,-16.0,-16.0,-34.0,1651025016690018.0,2
967,-15.0,29.0,28.0,7.0,10.0,-11.0,4.0,-1.0,1651025016690018.0,2
968,-3.0,-83.0,-41.0,1.0,8.0,20.0,25.0,21.0,1651025016704388.0,2
969,5.0,73.0,-29.0,-18.0,-7.0,-5.0,1.0,-12.0,1651025016704388.0,2
970,8.0,17.0,53.0,23.0,6.0,0.0,-48.0,-52.0,1651025016706408.0,2
971,1.0,0.0,0.0,-3.0,-10.0,-18.0,7.0,20.0,1651025016706408.0,2
972,-14.0,-4.0,-45.0,-12.0,-7.0,21.0,-11.0,-41.0,1651025016727346.0,2
973,3.0,-30.0,48.0,21.0,28.0,3.0,-5.0,-1.0,1651025016727346.0,2
974,12.0,39.0,17.0,12.0,-5.0,-29.0,3.0,30.0,1651025016728328.0,2
975,-3.0,48.0,20.0,10.0,2.0,4.0,-23.0,-40.0,1651025016728328.0,2
976,12.0,36.0,-29.0,-12.0,5.0,69.0,50.0,29.0,1651025016740355.0,2
977,-23.0,-114.0,-53.0,-16.0,-11.0,-19.0,-75.0,-51.0,1651025016740355.0,2
978,-3.0,22.0,31.0,28.0,9.0,4.0,16.0,21.0,1651025016749404.0,2
979,14.0,-48.0,-13.0,-10.0,2.0,14.0,-60.0,-37.0,1651025016749404.0,2
980,28.0,126.0,50.0,13.0,-3.0,-30.0,0.0,5.0,1651025016764351.0,2
981,-2.0,-35.0,-16.0,0.0,11.0,30.0,28.0,16.0,1651025016764351.0,2
982,-3.0,-24.0,15.0,-2.0,-2.0,-21.0,-44.0,-33.0,1651025016766345.0,2
983,1.0,21.0,16.0,0.0,-5.0,0.0,19.0,-7.0,1651025016766345.0,2
984,7.0,-48.0,-26.0,9.0,1.0,-6.0,-34.0,-32.0,1651025016786981.0,2
985,-18.0,-28.0,-21.0,-13.0,-12.0,-21.0,-11.0,10.0,1651025016786981.0,2
986,4.0,67.0,-28.0,-8.0,-4.0,14.0,16.0,13.0,1651025016788935.0,2
987,-10.0,-37.0,6.0,-11.0,-15.0,-2.0,26.0,13.0,1651025016788935.0,2
988,-6.0,6.0,49.0,20.0,21.0,-27.0,-33.0,-3.0,1651025016809126.0,2
989,17.0,-8.0,33.0,23.0,12.0,54.0,12.0,11.0,1651025016809126.0,2
990,1.0,48.0,-57.0,-21.0,-13.0,-8.0,21.0,10.0,1651025016811061.0,2
991,-4.0,-73.0,-63.0,-21.0,-1.0,-10.0,-46.0,-25.0,1651025016811061.0,2
992,-33.0,1.0,66.0,21.0,-6.0,-20.0,-14.0,-64.0,1651025016824477.0,2
993,24.0,44.0,-62.0,-26.0,-16.0,-28.0,7.0,19.0,1651025016824477.0,2
994,-26.0,-74.0,-1.0,0.0,1.0,-7.0,-8.0,-11.0,1651025016826431.0,2
995,12.0,40.0,39.0,17.0,6.0,40.0,48.0,36.0,1651025016826431.0,2
996,24.0,-18.0,12.0,2.0,16.0,3.0,22.0,85.0,1651025016847412.0,2
997,-24.0,-7.0,7.0,1.0,-1.0,-29.0,-63.0,-73.0,1651025016847412.0,2
998,22.0,22.0,32.0,13.0,4.0,21.0,19.0,13.0,1651025016848893.0,2
999,-32.0,-21.0,-43.0,-17.0,-15.0,-29.0,18.0,0.0,1651025016848893.0,2
1000,-3.0,-38.0,-7.0,-8.0,-7.0,28.0,39.0,55.0,1651025016869878.0,2
1001,18.0,81.0,30.0,35.0,16.0,16.0,-4.0,-15.0,1651025016869878.0,2
1002,-8.0,-42.0,-45.0,-39.0,-11.0,-14.0,-3.0,0.0,1651025016870808.0,2
1003,-2.0,-22.0,54.0,24.0,11.0,6.0,-10.0,-3.0,1651025016870808.0,2
1004,1.0,49.0,-35.0,-26.0,-17.0,-12.0,-2.0,-19.0,1651025016884940.0,2
1005,-2.0,-3.0,37.0,25.0,8.0,-13.0,13.0,17.0,1651025016884940.0,2
1006,14.0,0.0,10.0,17.0,18.0,31.0,12.0,2.0,1651025016885889.0,2
1007,-11.0,1.0,-35.0,-21.0,-6.0,-10.0,0.0,-2.0,1651025016885889.0,2
1008,13.0,26.0,41.0,23.0,3.0,4.0,0.0,25.0,1651025016907083.0,2
1009,4.0,-27.0,1.0,-11.0,-14.0,-1.0,1.0,-12.0,1651025016907083.0,2
1010,-6.0,-23.0,-14.0,4.0,5.0,-3.0,-2.0,22.0,1651025016908083.0,2
1011,11.0,51.0,10.0,3.0,5.0,-3.0,-9.0,-7.0,1651025016908083.0,2
1012,-21.0,-59.0,-27.0,-8.0,-6.0,-29.0,-21.0,-50.0,1651025016929205.0,2
1013,12.0,18.0,25.0,9.0,10.0,29.0,42.0,37.0,1651025016929205.0,2
1014,5.0,9.0,22.0,8.0,10.0,30.0,7.0,-21.0,1651025016931133.0,2
1015,-12.0,-4.0,-3.0,-3.0,10.0,34.0,29.0,25.0,1651025016931133.0,2
1016,-2.0,-13.0,23.0,-1.0,-10.0,-22.0,-25.0,-24.0,1651025016944097.0,2
1017,-2.0,-8.0,-43.0,-9.0,-2.0,-2.0,36.0,40.0,1651025016944097.0,2
1018,-8.0,-28.0,14.0,-2.0,-5.0,-23.0,-5.0,-6.0,1651025016946095.0,2
1019,-4.0,-5.0,-21.0,-10.0,-5.0,-18.0,-3.0,-7.0,1651025016946095.0,2
1020,18.0,55.0,-9.0,-1.0,4.0,9.0,41.0,25.0,1651025016967382.0,2
1021,-20.0,-87.0,8.0,11.0,4.0,7.0,-3.0,19.0,1651025016967382.0,2
1022,-4.0,37.0,36.0,-13.0,-14.0,-2.0,9.0,23.0,1651025016968897.0,2
1023,9.0,1.0,-41.0,-7.0,12.0,-6.0,-22.0,-15.0,1651025016968897.0,2
1024,3.0,25.0,29.0,8.0,4.0,13.0,19.0,14.0,1651025016989878.0,2
1025,2.0,-63.0,-48.0,-9.0,-7.0,-7.0,-8.0,-6.0,1651025016989878.0,2
1026,1.0,32.0,21.0,2.0,-10.0,-23.0,1.0,3.0,1651025016990812.0,2
1027,3.0,8.0,2.0,6.0,10.0,24.0,24.0,27.0,1651025016990812.0,2
1028,-8.0,-26.0,-20.0,-10.0,-4.0,-5.0,-9.0,-16.0,1651025017003776.0,2
1029,8.0,41.0,34.0,16.0,0.0,-44.0,-27.0,-27.0,1651025017003776.0,2
1030,-22.0,4.0,-15.0,-11.0,-6.0,13.0,-5.0,-25.0,1651025017010757.0,2
1031,3.0,23.0,-4.0,-4.0,4.0,29.0,11.0,29.0,1651025017010757.0,2
1032,15.0,28.0,1.0,5.0,5.0,16.0,1.0,5.0,1651025017026900.0,2
1033,0.0,10.0,-8.0,-18.0,-8.0,0.0,32.0,23.0,1651025017026900.0,2
1034,-6.0,6.0,10.0,17.0,11.0,-14.0,-12.0,-16.0,1651025017028922.0,2
1035,-9.0,22.0,29.0,4.0,-8.0,-12.0,-3.0,27.0,1651025017028922.0,2
1036,18.0,-32.0,-25.0,0.0,-2.0,22.0,-14.0,9.0,1651025017049910.0,2
1037,-18.0,-16.0,9.0,-18.0,1.0,-16.0,-27.0,-38.0,1651025017049910.0,2
1038,-17.0,-15.0,-34.0,-12.0,-10.0,-13.0,9.0,-2.0,1651025017051858.0,2
1039,-7.0,-6.0,-15.0,5.0,0.0,-6.0,-14.0,-18.0,1651025017051858.0,2
1040,-9.0,-30.0,-5.0,-2.0,-8.0,-11.0,-20.0,-10.0,1651025017063801.0,2
1041,6.0,23.0,61.0,18.0,0.0,14.0,20.0,21.0,1651025017063801.0,2
1042,-7.0,-81.0,-79.0,-31.0,6.0,-6.0,-13.0,-11.0,1651025017070967.0,2
1043,1.0,16.0,20.0,-2.0,-9.0,-8.0,-2.0,-24.0,1651025017070967.0,2
1044,1.0,0.0,-6.0,1.0,6.0,-13.0,9.0,-5.0,1651025017086962.0,2
1045,9.0,43.0,12.0,11.0,4.0,19.0,-2.0,-4.0,1651025017086962.0,2
1046,24.0,38.0,53.0,25.0,14.0,33.0,-2.0,28.0,1651025017088894.0,2
1047,-43.0,-123.0,-60.0,-14.0,-13.0,-59.0,-52.0,-64.0,1651025017088894.0,2
1048,-5.0,37.0,-16.0,-23.0,1.0,39.0,5.0,-4.0,1651025017109890.0,2
1049,6.0,17.0,12.0,7.0,8.0,13.0,16.0,13.0,1651025017109890.0,2
1050,13.0,18.0,-3.0,-8.0,-6.0,-18.0,11.0,14.0,1651025017110840.0,2
1051,5.0,-20.0,-18.0,5.0,0.0,12.0,-8.0,6.0,1651025017110840.0,2
1052,5.0,29.0,44.0,20.0,4.0,-9.0,8.0,13.0,1651025017131886.0,2
1053,-29.0,-47.0,-45.0,-15.0,-7.0,4.0,-14.0,-3.0,1651025017131886.0,2
1054,-5.0,-70.0,-31.0,-22.0,-14.0,-14.0,5.0,-5.0,1651025017133908.0,2
1055,19.0,83.0,23.0,4.0,-1.0,-9.0,-12.0,-8.0,1651025017133908.0,2
1056,-5.0,-16.0,30.0,4.0,2.0,-1.0,8.0,0.0,1651025017146910.0,2
1057,5.0,-2.0,-48.0,-1.0,6.0,10.0,9.0,6.0,1651025017146910.0,2
1058,5.0,23.0,42.0,10.0,-18.0,-12.0,-2.0,-4.0,1651025017148869.0,2
1059,7.0,-21.0,12.0,7.0,15.0,18.0,31.0,37.0,1651025017148869.0,2
1060,-7.0,-1.0,-19.0,-15.0,2.0,-6.0,5.0,-3.0,1651025017169973.0,2
1061,5.0,43.0,14.0,-9.0,-19.0,-43.0,-12.0,-12.0,1651025017169973.0,2
1062,-10.0,-59.0,-29.0,4.0,21.0,65.0,34.0,28.0,1651025017170926.0,2
1063,-12.0,-16.0,-18.0,-9.0,-11.0,-10.0,-43.0,-50.0,1651025017170926.0,2
1064,32.0,48.0,29.0,20.0,5.0,5.0,17.0,42.0,1651025017183907.0,2
1065,8.0,63.0,8.0,-8.0,-4.0,-21.0,4.0,-11.0,1651025017183907.0,2
1066,-15.0,-93.0,-49.0,-22.0,-21.0,-8.0,-21.0,-19.0,1651025017190959.0,2
1067,-4.0,23.0,22.0,5.0,14.0,34.0,38.0,37.0,1651025017190959.0,2
1068,11.0,38.0,-40.0,-19.0,-16.0,-1.0,-8.0,-6.0,1651025017207419.0,2
1069,-21.0,-47.0,-20.0,-8.0,-6.0,-3.0,-21.0,-32.0,1651025017207419.0,2
1070,-3.0,61.0,37.0,23.0,20.0,-2.0,6.0,0.0,1651025017208905.0,2
1071,37.0,66.0,35.0,4.0,-2.0,-9.0,13.0,22.0,1651025017208905.0,2
1072,-41.0,-74.0,-31.0,-3.0,-11.0,-17.0,-18.0,-27.0,1651025017229083.0,2
1073,7.0,14.0,3.0,1.0,1.0,23.0,7.0,15.0,1651025017229083.0,2
1074,12.0,-16.0,14.0,-4.0,-13.0,-17.0,-5.0,1.0,1651025017231083.0,2
1075,-1.0,-14.0,10.0,10.0,15.0,-2.0,-6.0,-4.0,1651025017231083.0,2
1076,-8.0,-25.0,-8.0,-14.0,-11.0,-16.0,-6.0,-7.0,1651025017251935.0,2
1077,-7.0,-33.0,-36.0,-4.0,14.0,22.0,8.0,1.0,1651025017251935.0,2
1078,-3.0,30.0,12.0,7.0,3.0,1.0,7.0,0.0,1651025017253939.0,2
1079,10.0,12.0,13.0,3.0,-7.0,-7.0,3.0,-10.0,1651025017253939.0,2
1080,12.0,0.0,17.0,12.0,0.0,-14.0,-1.0,7.0,1651025017266938.0,2
1081,-5.0,-7.0,-1.0,-6.0,-9.0,-3.0,-21.0,-26.0,1651025017266938.0,2
1082,17.0,84.0,23.0,11.0,13.0,9.0,-20.0,2.0,1651025017268875.0,2
1083,-18.0,-36.0,-29.0,-13.0,-12.0,-14.0,-20.0,-14.0,1651025017268875.0,2
1084,-12.0,-20.0,-47.0,-23.0,0.0,5.0,-1.0,-7.0,1651025017289888.0,2
1085,1.0,1.0,19.0,-2.0,-3.0,-10.0,-4.0,6.0,1651025017289888.0,2
1086,0.0,-17.0,-14.0,2.0,1.0,0.0,-2.0,-9.0,1651025017290820.0,2
1087,4.0,-9.0,4.0,-5.0,-7.0,-6.0,1.0,2.0,1651025017290820.0,2
1088,-10.0,3.0,2.0,3.0,-8.0,-16.0,-9.0,-10.0,1651025017303433.0,2
1089,6.0,1.0,-2.0,-9.0,7.0,8.0,2.0,8.0,1651025017303433.0,2
1090,2.0,-6.0,12.0,-15.0,0.0,0.0,5.0,4.0,1651025017310481.0,2
1091,-6.0,-14.0,-6.0,32.0,12.0,3.0,8.0,6.0,1651025017310481.0,2
1092,10.0,20.0,17.0,24.0,10.0,7.0,5.0,3.0,1651025017326969.0,2
1093,4.0,7.0,-2.0,-4.0,-17.0,5.0,11.0,13.0,1651025017326969.0,2
1094,-4.0,3.0,-10.0,-7.0,5.0,-4.0,2.0,-1.0,1651025017328896.0,2
1095,1.0,-22.0,-2.0,-24.0,-5.0,-2.0,-1.0,0.0,1651025017328896.0,2
1096,-2.0,-4.0,-9.0,-12.0,-10.0,2.0,-2.0,-9.0,1651025017349025.0,2
1097,8.0,24.0,2.0,-3.0,0.0,4.0,-4.0,4.0,1651025017349025.0,2
1098,-1.0,10.0,15.0,25.0,-8.0,-10.0,-6.0,-3.0,1651025017355979.0,2
1099,3.0,-7.0,-8.0,-4.0,1.0,1.0,4.0,5.0,1651025017355979.0,2
1100,10.0,-3.0,8.0,-8.0,1.0,3.0,4.0,4.0,1651025017363632.0,2
1101,-7.0,2.0,-3.0,-9.0,-1.0,-1.0,1.0,2.0,1651025017363632.0,2
1102,2.0,16.0,-4.0,-36.0,-20.0,-7.0,-2.0,0.0,1651025017371640.0,2
1103,-1.0,-9.0,6.0,31.0,6.0,4.0,7.0,3.0,1651025017371640.0,2
1104,3.0,15.0,6.0,31.0,12.0,5.0,3.0,0.0,1651025017387129.0,2
1105,0.0,-16.0,-10.0,-12.0,1.0,0.0,-2.0,2.0,1651025017387129.0,2
1106,-2.0,1.0,-6.0,-10.0,-1.0,-1.0,-1.0,-4.0,1651025017388086.0,2
1107,2.0,4.0,-1.0,-11.0,-8.0,-2.0,-1.0,1.0,1651025017388086.0,2
1108,-6.0,-8.0,2.0,-17.0,-10.0,-4.0,-3.0,-2.0,1651025017409002.0,2
1109,-2.0,-5.0,-3.0,0.0,3.0,3.0,1.0,2.0,1651025017409002.0,2
1110,-2.0,-5.0,2.0,20.0,6.0,-1.0,-1.0,-2.0,1651025017410998.0,2
1111,-2.0,2.0,-1.0,-9.0,0.0,2.0,4.0,2.0,1651025017410998.0,2
1112,-2.0,5.0,-2.0,0.0,3.0,0.0,-1.0,-3.0,1651025017423030.0,2
1113,2.0,-7.0,2.0,14.0,5.0,5.0,4.0,6.0,1651025017423030.0,2
1114,1.0,2.0,0.0,-7.0,-4.0,-2.0,1.0,1.0,1651025017431945.0,2
1115,0.0,-12.0,-7.0,-9.0,-7.0,-3.0,-3.0,-1.0,1651025017431945.0,2
1116,-10.0,-34.0,-5.0,10.0,11.0,2.0,2.0,-1.0,1651025017448927.0,2
1117,13.0,76.0,19.0,6.0,2.0,0.0,-1.0,3.0,1651025017448927.0,2
1118,1.0,-8.0,-3.0,5.0,0.0,-3.0,-2.0,-2.0,1651025017449894.0,2
1119,-2.0,-2.0,-4.0,-11.0,-2.0,-2.0,1.0,0.0,1651025017449894.0,2
1120,1.0,-10.0,2.0,-6.0,-3.0,1.0,0.0,-1.0,1651025017469974.0,2
1121,0.0,-9.0,4.0,27.0,14.0,8.0,3.0,1.0,1651025017469974.0,2
1122,2.0,1.0,5.0,11.0,1.0,0.0,2.0,2.0,1651025017470945.0,2
1123,2.0,8.0,5.0,2.0,0.0,2.0,1.0,1.0,1651025017470945.0,2
1124,-2.0,-3.0,-5.0,-10.0,-3.0,-2.0,0.0,-2.0,1651025017483418.0,2
1125,-3.0,-13.0,-3.0,-6.0,-8.0,-3.0,-1.0,0.0,1651025017483418.0,2
1126,-2.0,-1.0,-3.0,6.0,4.0,2.0,-1.0,-2.0,1651025017492398.0,2
1127,-1.0,-4.0,-5.0,-2.0,-2.0,-1.0,2.0,0.0,1651025017492398.0,2
1128,1.0,8.0,2.0,-2.0,3.0,0.0,-2.0,-1.0,1651025017506366.0,2
1129,-1.0,-15.0,-3.0,0.0,-1.0,-1.0,0.0,-1.0,1651025017506366.0,2
1130,-1.0,-4.0,-1.0,5.0,3.0,1.0,0.0,0.0,1651025017513394.0,2
1131,-1.0,2.0,-2.0,-3.0,-4.0,-1.0,1.0,-2.0,1651025017513394.0,2
1132,0.0,10.0,-1.0,1.0,0.0,-1.0,-3.0,-1.0,1651025017529363.0,2
1133,1.0,-13.0,-2.0,0.0,-1.0,1.0,1.0,1.0,1651025017529363.0,2
1134,-2.0,6.0,-4.0,-6.0,-16.0,-6.0,-3.0,-1.0,1651025017531320.0,2
1135,-4.0,-6.0,-1.0,3.0,16.0,1.0,0.0,-1.0,1651025017531320.0,2
1136,6.0,-12.0,-1.0,7.0,5.0,3.0,2.0,3.0,1651025017543322.0,2
1137,-14.0,-11.0,-3.0,-6.0,-5.0,0.0,-1.0,-4.0,1651025017543322.0,2
1138,3.0,6.0,0.0,-1.0,-1.0,-1.0,0.0,1.0,1651025017552616.0,2
1139,-2.0,-10.0,-3.0,-1.0,-7.0,-2.0,-2.0,0.0,1651025017552616.0,2
1140,4.0,22.0,2.0,-3.0,0.0,0.0,-1.0,0.0,1651025017566771.0,2
1141,1.0,-35.0,-2.0,-4.0,-2.0,-2.0,-1.0,1.0,1651025017566771.0,2
1142,-7.0,-16.0,-2.0,4.0,3.0,2.0,-1.0,-1.0,1651025017568698.0,2
1143,-1.0,-6.0,-1.0,2.0,1.0,-2.0,1.0,-1.0,1651025017568698.0,2
1144,3.0,15.0,2.0,-2.0,-2.0,-1.0,0.0,0.0,1651025017596545.0,2
1145,-5.0,-18.0,-5.0,-2.0,-3.0,-1.0,-1.0,-2.0,1651025017596545.0,2
1146,-3.0,5.0,-1.0,2.0,2.0,0.0,-2.0,-4.0,1651025017598541.0,2
1147,7.0,-5.0,-1.0,0.0,-1.0,1.0,-1.0,2.0,1651025017598541.0,2
1148,-3.0,-3.0,-3.0,-4.0,-3.0,-1.0,1.0,0.0,1651025017603526.0,2
1149,9.0,38.0,3.0,-3.0,-4.0,-2.0,-2.0,-1.0,1651025017603526.0,2
1150,0.0,-7.0,-3.0,3.0,8.0,1.0,0.0,1.0,1651025017612503.0,2
1151,-14.0,-14.0,2.0,-2.0,-2.0,-2.0,-4.0,-4.0,1651025017612503.0,2
1152,1.0,-1.0,-1.0,0.0,-5.0,-1.0,-1.0,-1.0,1651025017627409.0,2
1153,-1.0,-4.0,1.0,3.0,3.0,1.0,1.0,3.0,1651025017627409.0,2
1154,-5.0,4.0,0.0,-3.0,3.0,-1.0,1.0,-2.0,1651025017628612.0,2
1155,9.0,9.0,2.0,-6.0,-5.0,2.0,1.0,2.0,1651025017628612.0,2
1156,-9.0,-36.0,-9.0,9.0,1.0,-2.0,0.0,-3.0,1651025017649612.0,2
1157,0.0,4.0,-1.0,-4.0,-1.0,-1.0,-1.0,-2.0,1651025017649612.0,2
1158,3.0,13.0,3.0,2.0,3.0,1.0,2.0,0.0,1651025017651543.0,2
1159,-3.0,-13.0,-5.0,-4.0,0.0,-1.0,0.0,0.0,1651025017651543.0,2
1160,-2.0,1.0,0.0,-8.0,-2.0,-3.0,-2.0,-2.0,1651025017663523.0,2
1161,4.0,0.0,1.0,3.0,2.0,1.0,2.0,4.0,1651025017663523.0,2
1162,5.0,27.0,1.0,-2.0,-3.0,-2.0,-1.0,1.0,1651025017672488.0,2
1163,-11.0,-12.0,-4.0,-3.0,-2.0,-1.0,-1.0,-4.0,1651025017672488.0,2
1164,1.0,10.0,2.0,3.0,2.0,1.0,0.0,1.0,1651025017687412.0,2
1165,0.0,-16.0,-3.0,1.0,-1.0,-2.0,0.0,-1.0,1651025017687412.0,2
1166,-8.0,23.0,4.0,-1.0,0.0,-3.0,-3.0,-4.0,1651025017688875.0,2
1167,4.0,8.0,-1.0,3.0,-1.0,-1.0,0.0,0.0,1651025017688875.0,2
1168,-1.0,-2.0,-2.0,-3.0,0.0,0.0,-2.0,-2.0,1651025017709968.0,2
1169,-1.0,-2.0,-2.0,-2.0,-2.0,1.0,-1.0,-1.0,1651025017709968.0,2
1170,-6.0,-24.0,-8.0,0.0,-3.0,-2.0,-1.0,-3.0,1651025017710959.0,2
1171,4.0,3.0,0.0,4.0,1.0,2.0,0.0,1.0,1651025017710959.0,2
1172,-4.0,1.0,0.0,-5.0,-1.0,-2.0,-1.0,-2.0,1651025017722936.0,2
1173,1.0,6.0,0.0,-2.0,0.0,0.0,0.0,-1.0,1651025017722936.0,2
1174,1.0,-11.0,-1.0,1.0,-1.0,-1.0,1.0,0.0,1651025017731907.0,2
1175,1.0,10.0,-2.0,-10.0,-5.0,0.0,0.0,1.0,1651025017731907.0,2
1176,6.0,21.0,2.0,-13.0,-9.0,-3.0,-1.0,-1.0,1651025017747434.0,2
1177,-6.0,2.0,-1.0,15.0,13.0,3.0,-1.0,-2.0,1651025017747434.0,2
1178,-2.0,-9.0,4.0,10.0,3.0,1.0,1.0,-1.0,1651025017748871.0,2
1179,1.0,3.0,-2.0,3.0,1.0,0.0,-1.0,-2.0,1651025017748871.0,2
1180,2.0,8.0,-2.0,-15.0,-5.0,-1.0,-2.0,1.0,1651025017769601.0,2
1181,7.0,4.0,0.0,2.0,-4.0,-1.0,-1.0,1.0,1651025017769601.0,2
1182,-2.0,5.0,0.0,-2.0,-2.0,-1.0,0.0,-1.0,1651025017771527.0,2
1183,8.0,24.0,7.0,2.0,1.0,-1.0,0.0,1.0,1651025017771527.0,2
1184,-3.0,-1.0,0.0,0.0,-1.0,-1.0,-1.0,0.0,1651025017791666.0,2
1185,1.0,0.0,-2.0,-6.0,-3.0,-1.0,0.0,1.0,1651025017791666.0,2
1186,0.0,-4.0,0.0,0.0,1.0,2.0,2.0,1.0,1651025017793602.0,2
1187,0.0,-16.0,0.0,4.0,0.0,0.0,0.0,1.0,1651025017793602.0,2
1188,3.0,29.0,3.0,2.0,-2.0,-2.0,-2.0,-3.0,1651025017806843.0,2
1189,-8.0,-17.0,-4.0,-1.0,-2.0,0.0,-1.0,-3.0,1651025017806843.0,2
1190,2.0,-3.0,2.0,-1.0,0.0,0.0,-2.0,1.0,1651025017808824.0,2
1191,-5.0,0.0,-3.0,-3.0,-3.0,-3.0,-1.0,-3.0,1651025017808824.0,2
1192,-2.0,-10.0,-2.0,6.0,2.0,3.0,0.0,1.0,1651025017829794.0,2
1193,1.0,-10.0,-3.0,-6.0,-3.0,-1.0,0.0,-1.0,1651025017829794.0,2
1194,-5.0,0.0,-2.0,-3.0,-1.0,0.0,-2.0,-2.0,1651025017830735.0,2
1195,2.0,6.0,-2.0,1.0,1.0,-1.0,-1.0,0.0,1651025017830735.0,2
1196,-3.0,-13.0,-3.0,3.0,2.0,0.0,1.0,0.0,1651025017852004.0,2
1197,-3.0,-6.0,-2.0,-3.0,-3.0,-1.0,0.0,-1.0,1651025017852004.0,2
1198,2.0,0.0,0.0,0.0,-1.0,1.0,0.0,1.0,1651025017853959.0,2
1199,-1.0,2.0,-1.0,2.0,-1.0,-1.0,0.0,-2.0,1651025017853959.0,2
1200,-1.0,-9.0,2.0,4.0,1.0,0.0,0.0,1.0,1651025017874743.0,2
1201,2.0,13.0,1.0,-4.0,-1.0,1.0,0.0,1.0,1651025017874743.0,2
1202,0.0,-2.0,-2.0,-2.0,1.0,0.0,1.0,-2.0,1651025017875699.0,2
1203,-4.0,-9.0,0.0,3.0,0.0,2.0,-2.0,-1.0,1651025017875699.0,2
1204,-2.0,-8.0,-3.0,2.0,3.0,0.0,0.0,-3.0,1651025017888995.0,2
1205,0.0,6.0,-1.0,-3.0,-2.0,-2.0,-1.0,-1.0,1651025017888995.0,2
1206,1.0,-6.0,0.0,0.0,-3.0,-2.0,-1.0,0.0,1651025017890937.0,2
1207,1.0,-3.0,0.0,1.0,3.0,-2.0,0.0,0.0,1651025017890937.0,2
1208,-4.0,-3.0,1.0,3.0,4.0,1.0,0.0,0.0,1651025017912086.0,2
1209,0.0,-1.0,0.0,-2.0,-3.0,0.0,-1.0,-1.0,1651025017912086.0,2
1210,0.0,-6.0,-3.0,-3.0,-3.0,-1.0,0.0,0.0,1651025017914018.0,2
1211,3.0,13.0,1.0,-3.0,-4.0,-1.0,-1.0,1.0,1651025017914018.0,2
1212,1.0,-12.0,-3.0,-1.0,-1.0,-1.0,-2.0,0.0,1651025017925973.0,2
1213,0.0,10.0,2.0,-3.0,0.0,1.0,-2.0,-1.0,1651025017925973.0,2
1214,-3.0,-10.0,-1.0,1.0,-2.0,0.0,-1.0,-1.0,1651025017933433.0,2
1215,0.0,5.0,2.0,3.0,1.0,-1.0,0.0,-1.0,1651025017933433.0,2
1216,2.0,-2.0,-1.0,2.0,2.0,-1.0,0.0,1.0,1651025017949937.0,2
1217,-1.0,-12.0,-1.0,-1.0,1.0,0.0,1.0,0.0,1651025017949937.0,2
1218,3.0,6.0,-2.0,-2.0,0.0,0.0,-1.0,0.0,1651025017950913.0,2
1219,6.0,22.0,-2.0,-5.0,-3.0,0.0,-2.0,-1.0,1651025017950913.0,2
1220,-10.0,-24.0,-5.0,-2.0,-2.0,0.0,0.0,-4.0,1651025017971814.0,2
1221,2.0,14.0,0.0,1.0,-1.0,-1.0,0.0,2.0,1651025017971814.0,2
1222,-6.0,-24.0,-6.0,-2.0,-2.0,-2.0,0.0,-3.0,1651025017973742.0,2
1223,4.0,16.0,0.0,-4.0,-2.0,-4.0,-2.0,-1.0,1651025017973742.0,2
1224,-5.0,3.0,1.0,-4.0,-2.0,-1.0,-1.0,-1.0,1651025017986724.0,2
1225,-1.0,-3.0,-3.0,-4.0,-2.0,0.0,-1.0,0.0,1651025017986724.0,2
1226,1.0,-10.0,8.0,18.0,9.0,2.0,-2.0,1.0,1651025017992699.0,2
1227,3.0,-20.0,-1.0,1.0,1.0,2.0,3.0,2.0,1651025017992699.0,2
1228,-8.0,17.0,1.0,0.0,-5.0,-3.0,-4.0,-5.0,1651025018009800.0,2
1229,-4.0,-5.0,0.0,-1.0,1.0,-1.0,0.0,-1.0,1651025018009800.0,2
1230,4.0,7.0,-2.0,-6.0,-2.0,1.0,-1.0,0.0,1651025018010729.0,2
1231,-2.0,-1.0,1.0,-1.0,-3.0,1.0,1.0,1.0,1651025018010729.0,2
1232,4.0,1.0,-2.0,0.0,2.0,0.0,1.0,0.0,1651025018031887.0,2
1233,-1.0,4.0,2.0,4.0,2.0,0.0,1.0,0.0,1651025018031887.0,2
1234,2.0,11.0,1.0,-3.0,-3.0,-2.0,1.0,0.0,1651025018033818.0,2
1235,-8.0,-9.0,-2.0,-1.0,-1.0,-1.0,-1.0,-4.0,1651025018033818.0,2
1236,2.0,1.0,-4.0,-4.0,-3.0,0.0,-1.0,1.0,1651025018046791.0,2
1237,0.0,-6.0,-2.0,-2.0,-2.0,0.0,0.0,-1.0,1651025018046791.0,2
1238,2.0,3.0,-2.0,-2.0,0.0,0.0,0.0,1.0,1651025018052836.0,2
1239,-5.0,-10.0,0.0,-2.0,-2.0,-2.0,-2.0,-2.0,1651025018052836.0,2
1240,5.0,29.0,4.0,0.0,1.0,2.0,2.0,2.0,1651025018069791.0,2
1241,5.0,2.0,-1.0,-1.0,-1.0,-2.0,0.0,-1.0,1651025018069791.0,2
1242,-8.0,-37.0,-1.0,4.0,3.0,3.0,0.0,2.0,1651025018070726.0,2
1243,14.0,60.0,14.0,7.0,2.0,0.0,1.0,1.0,1651025018070726.0,2
1244,-3.0,-8.0,-4.0,0.0,-2.0,-2.0,-4.0,-1.0,1651025018092451.0,2
1245,0.0,-8.0,-2.0,-1.0,-1.0,0.0,-1.0,2.0,1651025018092451.0,2
1246,5.0,17.0,2.0,-6.0,-1.0,0.0,1.0,0.0,1651025018093451.0,2
1247,0.0,-3.0,-1.0,0.0,-2.0,1.0,0.0,-1.0,1651025018093451.0,2
1248,4.0,3.0,4.0,3.0,5.0,0.0,1.0,2.0,1651025018106293.0,2
1249,-7.0,-14.0,-2.0,-1.0,-1.0,0.0,0.0,-1.0,1651025018106293.0,2
1250,-1.0,2.0,-2.0,-1.0,-1.0,-2.0,1.0,-1.0,1651025018113238.0,2
1251,-6.0,-18.0,-1.0,0.0,0.0,-1.0,-1.0,0.0,1651025018113238.0,2
1252,2.0,5.0,1.0,-1.0,-2.0,-2.0,-1.0,-2.0,1651025018129372.0,2
1253,-5.0,-14.0,-4.0,-2.0,0.0,0.0,0.0,-2.0,1651025018129372.0,2
1254,0.0,16.0,2.0,-2.0,0.0,0.0,-2.0,-1.0,1651025018131391.0,2
1255,-5.0,-7.0,-5.0,1.0,-1.0,0.0,-1.0,-1.0,1651025018131391.0,2
1256,-3.0,-21.0,-3.0,-2.0,-1.0,1.0,-2.0,-1.0,1651025018152472.0,2
1257,2.0,14.0,3.0,2.0,1.0,-2.0,-1.0,0.0,1651025018152472.0,2
1258,-2.0,-2.0,0.0,0.0,1.0,-2.0,0.0,0.0,1651025018154506.0,2
1259,-2.0,-6.0,-3.0,-3.0,-1.0,0.0,-1.0,-1.0,1651025018154506.0,2
1260,4.0,-8.0,-7.0,-2.0,-2.0,0.0,0.0,2.0,1651025018166745.0,2
1261,-3.0,10.0,4.0,-2.0,-5.0,-2.0,-2.0,-1.0,1651025018166745.0,2
1262,-3.0,5.0,-4.0,-3.0,-3.0,-1.0,-1.0,-4.0,1651025018173485.0,2
1263,-1.0,-15.0,-4.0,6.0,6.0,1.0,-1.0,1.0,1651025018173485.0,2
1264,-4.0,23.0,7.0,1.0,-2.0,-1.0,0.0,-1.0,1651025018189949.0,2
1265,-1.0,-2.0,-2.0,-3.0,-2.0,-1.0,-3.0,-2.0,1651025018189949.0,2
1266,0.0,0.0,-4.0,-11.0,-6.0,-1.0,0.0,-3.0,1651025018190947.0,2
1267,-8.0,-20.0,-6.0,-4.0,-3.0,-1.0,-1.0,-2.0,1651025018190947.0,2
1268,-1.0,-8.0,1.0,1.0,2.0,1.0,1.0,0.0,1651025018211956.0,2
1269,-1.0,3.0,-4.0,-3.0,-1.0,-2.0,-1.0,0.0,1651025018211956.0,2
1270,-1.0,-6.0,1.0,5.0,0.0,-1.0,0.0,2.0,1651025018213911.0,2
1271,0.0,8.0,1.0,-2.0,-3.0,0.0,-1.0,-1.0,1651025018213911.0,2
1272,4.0,-22.0,-4.0,0.0,0.0,-1.0,1.0,1.0,1651025018225971.0,2
1273,-5.0,-7.0,-3.0,3.0,1.0,1.0,1.0,-1.0,1651025018225971.0,2
1274,5.0,15.0,0.0,2.0,0.0,0.0,1.0,1.0,1651025018232955.0,2
1275,-2.0,-7.0,-1.0,-1.0,0.0,-2.0,1.0,-1.0,1651025018232955.0,2
1276,4.0,6.0,3.0,-2.0,-4.0,-1.0,-3.0,-1.0,1651025018250020.0,2
1277,3.0,5.0,2.0,0.0,1.0,1.0,-2.0,-3.0,1651025018250020.0,2
1278,0.0,-4.0,-2.0,1.0,-1.0,1.0,-1.0,-1.0,1651025018251005.0,2
1279,5.0,8.0,2.0,-5.0,-2.0,-1.0,0.0,3.0,1651025018251005.0,2
1280,-19.0,-23.0,-6.0,3.0,-3.0,-2.0,-2.0,-6.0,1651025018272015.0,2
1281,1.0,11.0,-3.0,-2.0,4.0,-1.0,-2.0,-1.0,1651025018272015.0,2
1282,1.0,-5.0,-3.0,-2.0,0.0,0.0,-2.0,0.0,1651025018273944.0,2
1283,-8.0,-10.0,-3.0,0.0,0.0,-1.0,0.0,-1.0,1651025018273944.0,2
1284,8.0,12.0,7.0,3.0,1.0,0.0,1.0,1.0,1651025018285348.0,2
1285,0.0,-2.0,1.0,4.0,-1.0,-1.0,1.0,1.0,1651025018285348.0,2
1286,-7.0,-22.0,-6.0,0.0,-1.0,1.0,1.0,-2.0,1651025018294845.0,2
1287,10.0,-4.0,0.0,-3.0,0.0,0.0,0.0,2.0,1651025018294845.0,2
1288,-14.0,-14.0,-9.0,-6.0,-4.0,-2.0,-2.0,-5.0,1651025018309835.0,2
1289,-2.0,-1.0,4.0,9.0,3.0,1.0,-1.0,0.0,1651025018309835.0,2
1290,2.0,3.0,1.0,0.0,1.0,0.0,1.0,2.0,1651025018311803.0,2
1291,1.0,-16.0,2.0,5.0,0.0,0.0,-1.0,-1.0,1651025018311803.0,2
1292,6.0,24.0,2.0,-3.0,0.0,0.0,1.0,1.0,1651025018331814.0,2
1293,3.0,0.0,0.0,-4.0,-1.0,1.0,1.0,0.0,1651025018331814.0,2
1294,-2.0,1.0,-2.0,-2.0,0.0,-1.0,-1.0,0.0,1651025018333744.0,2
1295,-4.0,-2.0,-2.0,-2.0,0.0,0.0,-2.0,-2.0,1651025018333744.0,2
1296,4.0,-6.0,-2.0,0.0,1.0,0.0,-1.0,2.0,1651025018345783.0,2
1297,-1.0,-1.0,0.0,-2.0,-2.0,-2.0,0.0,-2.0,1651025018345783.0,2
1298,4.0,7.0,4.0,1.0,2.0,0.0,0.0,-1.0,1651025018354688.0,2
1299,0.0,13.0,-2.0,-5.0,-2.0,-1.0,-1.0,0.0,1651025018354688.0,2
1300,4.0,-1.0,1.0,3.0,2.0,0.0,1.0,0.0,1651025018369830.0,2
1301,-9.0,-22.0,-3.0,1.0,-2.0,-1.0,-2.0,-2.0,1651025018369830.0,2
1302,0.0,-2.0,0.0,-1.0,-1.0,-2.0,-1.0,-1.0,1651025018370765.0,2
1303,4.0,14.0,4.0,2.0,0.0,0.0,2.0,1.0,1651025018370765.0,2
1304,-10.0,-37.0,-12.0,-3.0,1.0,0.0,1.0,0.0,1651025018392419.0,2
1305,9.0,30.0,9.0,0.0,1.0,-1.0,-1.0,1.0,1651025018392419.0,2
1306,-1.0,-1.0,0.0,-1.0,-1.0,-1.0,0.0,-1.0,1651025018393430.0,2
1307,1.0,-2.0,0.0,-1.0,-2.0,-3.0,-2.0,-1.0,1651025018393430.0,2
1308,1.0,6.0,3.0,5.0,-1.0,2.0,1.0,1.0,1651025018405453.0,2
1309,-3.0,-9.0,-7.0,-2.0,-2.0,-2.0,1.0,1.0,1651025018405453.0,2
1310,0.0,-3.0,-2.0,0.0,0.0,0.0,-1.0,-2.0,1651025018414362.0,2
1311,-4.0,-2.0,-3.0,-2.0,1.0,2.0,0.0,-2.0,1651025018414362.0,2
1312,5.0,12.0,2.0,-4.0,-5.0,-2.0,-2.0,-1.0,1651025018429322.0,2
1313,0.0,-7.0,-4.0,2.0,5.0,0.0,0.0,-1.0,1651025018429322.0,2
1314,-2.0,7.0,3.0,0.0,-1.0,1.0,1.0,1.0,1651025018431318.0,2
1315,-5.0,-10.0,-3.0,4.0,0.0,1.0,-1.0,-2.0,1651025018431318.0,2
1316,2.0,7.0,3.0,0.0,0.0,0.0,-1.0,0.0,1651025018452328.0,2
1317,-1.0,-1.0,-2.0,-2.0,-3.0,-1.0,-1.0,0.0,1651025018452328.0,2
1318,0.0,-1.0,0.0,0.0,0.0,-1.0,1.0,0.0,1651025018453257.0,2
1319,-3.0,-3.0,-2.0,0.0,-1.0,0.0,-1.0,-3.0,1651025018453257.0,2
1320,0.0,2.0,-1.0,0.0,-4.0,-1.0,-2.0,0.0,1651025018465973.0,2
1321,5.0,0.0,0.0,-1.0,3.0,1.0,1.0,2.0,1651025018465973.0,2
1322,-12.0,0.0,2.0,-9.0,-4.0,-2.0,-4.0,-2.0,1651025018474885.0,2
1323,-2.0,1.0,1.0,9.0,1.0,-1.0,-2.0,-1.0,1651025018474885.0,2
1324,-1.0,12.0,2.0,1.0,1.0,1.0,0.0,-2.0,1651025018489843.0,2
1325,-4.0,-2.0,-4.0,-3.0,-4.0,-2.0,-1.0,-3.0,1651025018489843.0,2
1326,4.0,2.0,1.0,2.0,1.0,0.0,1.0,1.0,1651025018490842.0,2
1327,-1.0,2.0,-3.0,-7.0,-2.0,-1.0,1.0,-1.0,1651025018490842.0,2
1328,-2.0,-4.0,-3.0,-4.0,0.0,-1.0,-1.0,-1.0,1651025018511884.0,2
1329,-4.0,-8.0,-2.0,1.0,-1.0,-1.0,0.0,0.0,1651025018511884.0,2
1330,3.0,15.0,1.0,-7.0,-2.0,-1.0,-3.0,-1.0,1651025018513815.0,2
1331,-5.0,-4.0,1.0,2.0,0.0,-1.0,-1.0,-1.0,1651025018513815.0,2
1332,1.0,-5.0,-2.0,3.0,0.0,-1.0,-1.0,0.0,1651025018525816.0,2
1333,2.0,3.0,-1.0,-3.0,-1.0,1.0,1.0,1.0,1651025018525816.0,2
1334,-1.0,-4.0,-4.0,2.0,-1.0,-2.0,1.0,0.0,1651025018534808.0,2
1335,1.0,1.0,-1.0,-2.0,-2.0,-2.0,0.0,-2.0,1651025018534808.0,2
1336,2.0,0.0,3.0,1.0,2.0,0.0,1.0,0.0,1651025018549996.0,2
1337,-1.0,3.0,2.0,-1.0,-2.0,1.0,-1.0,0.0,1651025018549996.0,2
1338,-5.0,-34.0,-5.0,1.0,-2.0,1.0,-1.0,-2.0,1651025018550975.0,2
1339,-2.0,-22.0,-4.0,-2.0,-1.0,-2.0,-1.0,0.0,1651025018550975.0,2
1340,3.0,24.0,4.0,2.0,-1.0,1.0,0.0,-1.0,1651025018572086.0,2
1341,-1.0,-11.0,-2.0,-1.0,-1.0,0.0,0.0,-1.0,1651025018572086.0,2
1342,1.0,-1.0,-2.0,2.0,3.0,2.0,-3.0,-4.0,1651025018573093.0,2
1343,-3.0,-9.0,-3.0,-4.0,-4.0,0.0,4.0,7.0,1651025018573093.0,2
1344,1.0,14.0,3.0,0.0,1.0,-1.0,0.0,2.0,1651025018586062.0,0
1345,-7.0,-3.0,-2.0,-2.0,-2.0,0.0,-2.0,-5.0,1651025018586062.0,0
1346,8.0,-4.0,4.0,7.0,3.0,3.0,2.0,6.0,1651025018595015.0,0
1347,-5.0,0.0,-1.0,-2.0,1.0,-1.0,-7.0,-8.0,1651025018595015.0,0
1348,-4.0,4.0,-2.0,0.0,1.0,-1.0,-2.0,-4.0,1651025018609896.0,0
1349,1.0,2.0,2.0,-3.0,0.0,-2.0,0.0,5.0,1651025018609896.0,0
1350,6.0,21.0,0.0,-2.0,-2.0,-1.0,1.0,1.0,1651025018610897.0,0
1351,-2.0,17.0,3.0,-5.0,-2.0,-1.0,-1.0,-1.0,1651025018610897.0,0
1352,10.0,0.0,6.0,3.0,2.0,2.0,2.0,8.0,1651025018631903.0,0
1353,-1.0,-15.0,-8.0,11.0,3.0,0.0,-2.0,-6.0,1651025018631903.0,0
1354,-2.0,12.0,3.0,-8.0,-2.0,-2.0,-2.0,-1.0,1651025018633859.0,0
1355,1.0,-12.0,-2.0,9.0,-7.0,0.0,0.0,4.0,1651025018633859.0,0
1356,9.0,25.0,0.0,-5.0,5.0,-1.0,3.0,2.0,1651025018646002.0,0
1357,-4.0,-10.0,3.0,2.0,7.0,1.0,1.0,0.0,1651025018646002.0,0
1358,5.0,28.0,-2.0,9.0,3.0,0.0,0.0,0.0,1651025018654824.0,0
1359,18.0,61.0,20.0,2.0,-1.0,-1.0,2.0,2.0,1651025018654824.0,0
1360,-24.0,-100.0,-25.0,-12.0,-11.0,-3.0,-6.0,-5.0,1651025018669845.0,3
1361,-3.0,-6.0,-16.0,-7.0,-5.0,-3.0,-1.0,-3.0,1651025018669845.0,3
1362,5.0,9.0,-4.0,-6.0,-3.0,-2.0,-1.0,1.0,1651025018670793.0,3
1363,4.0,3.0,3.0,1.0,5.0,2.0,0.0,-2.0,1651025018670793.0,3
1364,8.0,32.0,15.0,1.0,-1.0,-3.0,-1.0,3.0,1651025018691528.0,3
1365,23.0,31.0,11.0,-2.0,-1.0,0.0,5.0,10.0,1651025018691528.0,3
1366,-21.0,-57.0,-12.0,0.0,-7.0,-2.0,-3.0,-6.0,1651025018693537.0,3
1367,0.0,-23.0,-9.0,-3.0,2.0,-2.0,-2.0,-2.0,1651025018693537.0,3
1368,3.0,1.0,-6.0,-4.0,12.0,2.0,-3.0,-2.0,1651025018714534.0,3
1369,-5.0,12.0,0.0,-6.0,-8.0,-2.0,-1.0,-1.0,1651025018714534.0,3
1370,2.0,14.0,8.0,10.0,5.0,1.0,1.0,4.0,1651025018716478.0,3
1371,-7.0,-30.0,-7.0,0.0,-6.0,-1.0,-2.0,-1.0,1651025018716478.0,3
1372,-8.0,-16.0,-6.0,-2.0,-2.0,0.0,-1.0,-3.0,1651025018729427.0,3
1373,7.0,0.0,2.0,-2.0,1.0,0.0,0.0,-1.0,1651025018729427.0,3
1374,-9.0,-1.0,-18.0,-20.0,-10.0,-4.0,-3.0,-5.0,1651025018731442.0,3
1375,-3.0,20.0,-2.0,-1.0,0.0,-2.0,0.0,-2.0,1651025018731442.0,3
1376,-4.0,-58.0,-3.0,-1.0,-3.0,-2.0,0.0,1.0,1651025018752451.0,3
1377,-3.0,7.0,5.0,2.0,-3.0,2.0,-3.0,-2.0,1651025018752451.0,3
1378,0.0,6.0,-4.0,3.0,11.0,2.0,0.0,-2.0,1651025018753455.0,3
1379,5.0,-11.0,-10.0,-8.0,4.0,3.0,2.0,2.0,1651025018753455.0,3
1380,-8.0,30.0,2.0,-12.0,-5.0,-5.0,0.0,-4.0,1651025018782498.0,3
1381,-5.0,3.0,10.0,9.0,4.0,2.0,0.0,0.0,1651025018782498.0,3
1382,1.0,-29.0,-20.0,-12.0,-20.0,-6.0,0.0,1.0,1651025018783487.0,3
1383,-2.0,-7.0,3.0,16.0,-11.0,-11.0,0.0,-1.0,1651025018783487.0,3
1384,0.0,2.0,-12.0,-9.0,24.0,14.0,-1.0,-2.0,1651025018789498.0,3
1385,-1.0,9.0,8.0,14.0,4.0,1.0,-1.0,1.0,1651025018789498.0,3
1386,-5.0,1.0,8.0,-1.0,3.0,2.0,3.0,3.0,1651025018791467.0,3
1387,2.0,8.0,-6.0,-15.0,-12.0,-4.0,-4.0,-2.0,1651025018791467.0,3
1388,3.0,32.0,23.0,18.0,-9.0,-5.0,0.0,2.0,1651025018812412.0,3
1389,-6.0,-10.0,6.0,-6.0,2.0,0.0,-1.0,-6.0,1651025018812412.0,3
1390,0.0,-5.0,-21.0,4.0,-2.0,-1.0,-1.0,1.0,1651025018813406.0,3
1391,0.0,11.0,14.0,2.0,4.0,3.0,0.0,2.0,1651025018813406.0,3
1392,-3.0,-19.0,-24.0,-4.0,-6.0,-5.0,6.0,9.0,1651025018834902.0,3
1393,4.0,1.0,13.0,7.0,6.0,3.0,-2.0,0.0,1651025018834902.0,3
1394,-2.0,-1.0,3.0,14.0,2.0,0.0,-2.0,-2.0,1651025018835909.0,3
1395,-6.0,-11.0,-10.0,-28.0,-6.0,-2.0,-3.0,-5.0,1651025018835909.0,3
1396,6.0,29.0,20.0,16.0,10.0,5.0,2.0,-1.0,1651025018848934.0,3
1397,-10.0,-56.0,-78.0,-37.0,-15.0,-6.0,-8.0,15.0,1651025018848934.0,3
1398,-4.0,17.0,57.0,11.0,-8.0,-8.0,-5.0,-13.0,1651025018856041.0,3
1399,-1.0,-9.0,-12.0,26.0,20.0,10.0,2.0,12.0,1651025018856041.0,3
1400,-1.0,25.0,79.0,19.0,-3.0,-3.0,0.0,-20.0,1651025018872119.0,3
1401,7.0,3.0,23.0,8.0,3.0,7.0,56.0,41.0,1651025018872119.0,3
1402,-1.0,-25.0,-41.0,-32.0,-3.0,2.0,-1.0,1.0,1651025018874043.0,3
1403,-6.0,-37.0,-96.0,-46.0,-12.0,0.0,-16.0,-20.0,1651025018874043.0,3
1404,-5.0,-14.0,-22.0,-8.0,-1.0,-10.0,-21.0,-31.0,1651025018902082.0,3
1405,-15.0,-38.0,68.0,21.0,3.0,-10.0,-7.0,20.0,1651025018902082.0,3
1406,14.0,16.0,43.0,32.0,14.0,17.0,61.0,27.0,1651025018903082.0,3
1407,10.0,6.0,2.0,13.0,2.0,12.0,6.0,16.0,1651025018903082.0,3
1408,-13.0,-46.0,-117.0,-56.0,-30.0,-63.0,-31.0,-22.0,1651025018909066.0,3
1409,7.0,44.0,52.0,-4.0,-3.0,3.0,-11.0,-22.0,1651025018909066.0,3
1410,-3.0,-14.0,20.0,1.0,4.0,34.0,73.0,61.0,1651025018916067.0,3
1411,21.0,27.0,52.0,39.0,26.0,29.0,-28.0,-7.0,1651025018916067.0,3
1412,-16.0,1.0,5.0,-2.0,-6.0,5.0,-37.0,-37.0,1651025018932149.0,3
1413,17.0,21.0,-37.0,-12.0,-12.0,-41.0,-14.0,-5.0,1651025018932149.0,3
1414,6.0,15.0,0.0,25.0,5.0,-23.0,19.0,76.0,1651025018933079.0,3
1415,1.0,11.0,4.0,-10.0,6.0,27.0,-31.0,-61.0,1651025018933079.0,3
1416,21.0,108.0,34.0,1.0,-12.0,-26.0,19.0,24.0,1651025018954509.0,3
1417,-7.0,-78.0,-67.0,-25.0,-7.0,3.0,-32.0,-58.0,1651025018954509.0,3
1418,-2.0,3.0,-17.0,-8.0,6.0,10.0,-35.0,-36.0,1651025018956461.0,3
1419,17.0,4.0,1.0,-4.0,3.0,3.0,47.0,39.0,1651025018956461.0,3
1420,3.0,-4.0,29.0,23.0,6.0,3.0,6.0,10.0,1651025018967937.0,3
1421,1.0,19.0,26.0,11.0,-6.0,-19.0,-27.0,-24.0,1651025018967937.0,3
1422,8.0,79.0,84.0,37.0,9.0,-5.0,-54.0,-24.0,1651025018977440.0,3
1423,-34.0,-87.0,-80.0,-54.0,-18.0,-33.0,0.0,-9.0,1651025018977440.0,3
1424,27.0,53.0,56.0,12.0,11.0,69.0,8.0,-10.0,1651025018992399.0,3
1425,-27.0,-13.0,-61.0,-11.0,-11.0,-26.0,-25.0,-12.0,1651025018992399.0,3
1426,22.0,-37.0,28.0,25.0,18.0,-4.0,9.0,27.0,1651025018993397.0,3
1427,-7.0,78.0,42.0,-1.0,-12.0,-23.0,-36.0,-66.0,1651025018993397.0,3
1428,-73.0,-103.0,-30.0,-13.0,-25.0,-13.0,-21.0,-37.0,1651025019014816.0,3
1429,-3.0,37.0,-43.0,-7.0,4.0,4.0,44.0,17.0,1651025019014816.0,3
1430,-6.0,-11.0,-24.0,-24.0,-3.0,-6.0,-33.0,-82.0,1651025019015813.0,3
1431,9.0,40.0,59.0,17.0,-14.0,-21.0,21.0,46.0,1651025019015813.0,3
1432,-4.0,-93.0,-42.0,-4.0,14.0,18.0,41.0,42.0,1651025019027831.0,3
1433,7.0,42.0,45.0,14.0,17.0,19.0,-42.0,-58.0,1651025019027831.0,3
1434,-8.0,-20.0,-77.0,-21.0,-7.0,-2.0,58.0,52.0,1651025019036839.0,3
1435,1.0,-53.0,42.0,33.0,20.0,17.0,4.0,8.0,1651025019036839.0,3
1436,4.0,101.0,1.0,-20.0,-34.0,-22.0,0.0,22.0,1651025019051799.0,3
1437,3.0,20.0,67.0,26.0,10.0,-18.0,-7.0,42.0,1651025019051799.0,3
1438,14.0,-17.0,-47.0,-19.0,-1.0,15.0,10.0,-12.0,1651025019053765.0,3
1439,-29.0,39.0,101.0,21.0,-2.0,16.0,12.0,1.0,1651025019053765.0,3
1440,5.0,-54.0,-53.0,12.0,26.0,-4.0,-20.0,9.0,1651025019074814.0,3
1441,7.0,15.0,-64.0,-37.0,-22.0,-36.0,73.0,89.0,1651025019074814.0,3
1442,-8.0,27.0,38.0,4.0,6.0,73.0,8.0,-8.0,1651025019075814.0,3
1443,-2.0,-13.0,6.0,8.0,3.0,2.0,-74.0,-81.0,1651025019075814.0,3
1444,-7.0,-28.0,-5.0,9.0,2.0,-16.0,35.0,19.0,1651025019088777.0,3
1445,11.0,9.0,-9.0,-20.0,-3.0,34.0,42.0,-6.0,1651025019088777.0,3
1446,-8.0,-27.0,10.0,14.0,2.0,-49.0,-61.0,-35.0,1651025019095788.0,3
1447,-5.0,-15.0,-48.0,-26.0,-20.0,-19.0,44.0,62.0,1651025019095788.0,3
1448,17.0,31.0,5.0,17.0,-1.0,13.0,18.0,21.0,1651025019111783.0,3
1449,-2.0,-53.0,-3.0,16.0,21.0,-10.0,17.0,19.0,1651025019111783.0,3
1450,8.0,70.0,100.0,5.0,-10.0,11.0,1.0,-11.0,1651025019113712.0,3
1451,-4.0,-53.0,-83.0,-21.0,-7.0,5.0,0.0,-19.0,1651025019113712.0,3
1452,16.0,26.0,65.0,20.0,9.0,-7.0,-35.0,47.0,1651025019134665.0,3
1453,3.0,7.0,-29.0,-3.0,-5.0,10.0,10.0,12.0,1651025019134665.0,3
1454,16.0,70.0,66.0,29.0,14.0,10.0,-20.0,8.0,1651025019135680.0,3
1455,-27.0,-82.0,-84.0,-21.0,-6.0,-20.0,2.0,-3.0,1651025019135680.0,3
1456,23.0,5.0,19.0,-18.0,-17.0,-22.0,41.0,62.0,1651025019147621.0,3
1457,-27.0,-36.0,-25.0,-6.0,13.0,69.0,-33.0,-79.0,1651025019147621.0,3
1458,4.0,9.0,-25.0,-14.0,0.0,-6.0,11.0,-5.0,1651025019156597.0,3
1459,-10.0,-65.0,-20.0,4.0,-7.0,-62.0,-97.0,-63.0,1651025019156597.0,3
1460,3.0,35.0,23.0,6.0,7.0,25.0,-13.0,-74.0,1651025019171557.0,3
1461,3.0,-23.0,14.0,23.0,9.0,-4.0,2.0,23.0,1651025019171557.0,3
1462,-11.0,14.0,-34.0,-14.0,-18.0,-19.0,-21.0,-1.0,1651025019173551.0,3
1463,-2.0,8.0,7.0,-10.0,-1.0,13.0,43.0,51.0,1651025019173551.0,3
1464,22.0,-56.0,36.0,14.0,12.0,-2.0,-13.0,-15.0,1651025019194497.0,3
1465,-11.0,109.0,-50.0,-17.0,-18.0,-24.0,-25.0,-27.0,1651025019194497.0,3
1466,4.0,-36.0,-33.0,-6.0,-3.0,-3.0,2.0,-12.0,1651025019196490.0,3
1467,-3.0,67.0,50.0,16.0,4.0,-10.0,19.0,17.0,1651025019196490.0,3
1468,9.0,30.0,13.0,8.0,12.0,17.0,21.0,17.0,1651025019208458.0,3
1469,2.0,-46.0,20.0,3.0,-6.0,11.0,21.0,11.0,1651025019208458.0,3
1470,-16.0,-48.0,-69.0,-29.0,-8.0,-20.0,-7.0,-2.0,1651025019217433.0,3
1471,24.0,6.0,12.0,-8.0,-7.0,11.0,18.0,17.0,1651025019217433.0,3
1472,-19.0,34.0,-7.0,2.0,13.0,2.0,25.0,13.0,1651025019232412.0,3
1473,23.0,20.0,39.0,11.0,6.0,25.0,-17.0,-4.0,1651025019232412.0,3
1474,-50.0,-62.0,-76.0,-39.0,-24.0,-47.0,-80.0,-73.0,1651025019233391.0,3
1475,12.0,12.0,19.0,14.0,6.0,2.0,-5.0,11.0,1651025019233391.0,3
1476,-1.0,-4.0,-11.0,-6.0,-4.0,20.0,29.0,18.0,1651025019254338.0,3
1477,-13.0,-84.0,45.0,26.0,-1.0,-31.0,-14.0,20.0,1651025019254338.0,3
1478,13.0,16.0,-15.0,-3.0,7.0,14.0,-10.0,16.0,1651025019256356.0,3
1479,19.0,36.0,32.0,19.0,16.0,25.0,1.0,9.0,1651025019256356.0,3
1480,-4.0,20.0,5.0,-9.0,-9.0,-11.0,-4.0,-9.0,1651025019268366.0,3
1481,1.0,-5.0,-4.0,6.0,3.0,-1.0,1.0,-28.0,1651025019268366.0,3
1482,12.0,13.0,41.0,11.0,-3.0,0.0,15.0,51.0,1651025019277274.0,3
1483,-7.0,-25.0,-41.0,-14.0,5.0,0.0,29.0,17.0,1651025019277274.0,3
1484,3.0,52.0,-19.0,-2.0,-10.0,-20.0,-31.0,-26.0,1651025019291305.0,3
1485,16.0,54.0,62.0,14.0,8.0,30.0,6.0,4.0,1651025019291305.0,3
1486,-10.0,-52.0,-37.0,-7.0,-2.0,-13.0,18.0,-2.0,1651025019299226.0,3
1487,15.0,51.0,14.0,3.0,6.0,1.0,24.0,19.0,1651025019299226.0,3
1488,-10.0,-60.0,2.0,7.0,0.0,3.0,-6.0,-46.0,1651025019316356.0,3
1489,-6.0,-1.0,-32.0,-28.0,-13.0,2.0,15.0,21.0,1651025019316356.0,3
1490,18.0,56.0,22.0,2.0,3.0,10.0,27.0,-3.0,1651025019317351.0,3
1491,-32.0,-26.0,-2.0,0.0,-1.0,-10.0,-70.0,-36.0,1651025019317351.0,3
1492,10.0,-19.0,-4.0,20.0,15.0,32.0,-17.0,-11.0,1651025019328381.0,3
1493,-1.0,10.0,-29.0,-41.0,-28.0,-53.0,-1.0,36.0,1651025019328381.0,3
1494,17.0,7.0,66.0,32.0,33.0,68.0,-14.0,-20.0,1651025019336836.0,3
1495,6.0,-3.0,-46.0,-23.0,-14.0,-5.0,18.0,19.0,1651025019336836.0,3
1496,-4.0,-9.0,-1.0,-4.0,-13.0,-34.0,-28.0,-41.0,1651025019352034.0,3
1497,-25.0,0.0,-23.0,-7.0,10.0,27.0,-58.0,-70.0,1651025019352034.0,3
1498,-13.0,-31.0,-6.0,-10.0,-12.0,-30.0,21.0,33.0,1651025019353961.0,3
1499,28.0,46.0,19.0,10.0,2.0,-2.0,9.0,8.0,1651025019353961.0,3
1500,-15.0,-50.0,-68.0,-31.0,-9.0,14.0,28.0,19.0,1651025019374951.0,3
1501,15.0,34.0,77.0,29.0,-3.0,-13.0,7.0,-4.0,1651025019374951.0,3
1502,10.0,57.0,15.0,5.0,4.0,-5.0,-2.0,1.0,1651025019375922.0,3
1503,-29.0,-22.0,-28.0,-4.0,4.0,14.0,14.0,22.0,1651025019375922.0,3
1504,7.0,8.0,5.0,-4.0,-2.0,-21.0,-7.0,26.0,1651025019387957.0,3
1505,4.0,9.0,-14.0,8.0,2.0,5.0,-43.0,-33.0,1651025019387957.0,3
1506,-26.0,-36.0,-16.0,-14.0,-7.0,-4.0,41.0,37.0,1651025019396872.0,3
1507,13.0,-4.0,14.0,3.0,-1.0,7.0,36.0,24.0,1651025019396872.0,3
1508,2.0,-25.0,-17.0,0.0,5.0,-8.0,25.0,31.0,1651025019411894.0,3
1509,8.0,22.0,1.0,-4.0,1.0,8.0,-6.0,21.0,1651025019411894.0,3
1510,-7.0,-5.0,-8.0,-3.0,-12.0,17.0,-17.0,-17.0,1651025019413847.0,3
1511,11.0,32.0,8.0,11.0,16.0,7.0,23.0,6.0,1651025019413847.0,3
1512,-8.0,11.0,9.0,8.0,2.0,-7.0,-27.0,1.0,1651025019434896.0,3
1513,6.0,-94.0,-40.0,-10.0,8.0,14.0,16.0,63.0,1651025019434896.0,3
1514,-10.0,31.0,46.0,16.0,-6.0,-16.0,14.0,9.0,1651025019435879.0,3
1515,3.0,50.0,-10.0,-14.0,-4.0,-11.0,-41.0,-47.0,1651025019435879.0,3
1516,-10.0,-3.0,-20.0,-19.0,-6.0,0.0,-37.0,-22.0,1651025019447930.0,3
1517,8.0,50.0,12.0,9.0,-8.0,-18.0,-11.0,-33.0,1651025019447930.0,3
1518,-5.0,-23.0,-10.0,-14.0,-1.0,-9.0,3.0,-13.0,1651025019456880.0,3
1519,-3.0,-16.0,50.0,36.0,12.0,12.0,34.0,46.0,1651025019456880.0,3
1520,28.0,42.0,10.0,-4.0,0.0,-6.0,-54.0,-53.0,1651025019472500.0,3
1521,-40.0,-66.0,-54.0,-17.0,-4.0,2.0,24.0,-2.0,1651025019472500.0,3
1522,-8.0,-40.0,-37.0,-20.0,-12.0,-13.0,-3.0,-4.0,1651025019473507.0,3
1523,0.0,34.0,48.0,18.0,1.0,-14.0,-12.0,-26.0,1651025019473507.0,3
1524,-12.0,-30.0,-34.0,-25.0,-2.0,28.0,44.0,36.0,1651025019494456.0,3
1525,20.0,-4.0,-19.0,8.0,9.0,29.0,22.0,17.0,1651025019494456.0,3
1526,3.0,14.0,55.0,19.0,6.0,-10.0,-37.0,-49.0,1651025019496465.0,3
1527,-10.0,-16.0,-46.0,-3.0,-10.0,-29.0,-4.0,0.0,1651025019496465.0,3
1528,5.0,-5.0,2.0,2.0,-6.0,49.0,86.0,59.0,1651025019508567.0,3
1529,-19.0,-4.0,43.0,5.0,28.0,5.0,-10.0,-18.0,1651025019508567.0,3
1530,-15.0,-26.0,-53.0,-30.0,-8.0,-5.0,-38.0,-36.0,1651025019517504.0,3
1531,20.0,26.0,23.0,10.0,-3.0,-13.0,-18.0,-15.0,1651025019517504.0,3
1532,-5.0,-32.0,-11.0,-8.0,-9.0,-10.0,4.0,-3.0,1651025019531533.0,3
1533,0.0,40.0,21.0,10.0,-8.0,-2.0,19.0,16.0,1651025019531533.0,3
1534,8.0,14.0,8.0,20.0,7.0,2.0,22.0,6.0,1651025019538516.0,3
1535,-4.0,-44.0,-35.0,-21.0,-4.0,5.0,-4.0,-1.0,1651025019538516.0,3
1536,-13.0,49.0,33.0,-1.0,-7.0,-17.0,-42.0,-17.0,1651025019554506.0,3
1537,19.0,50.0,2.0,10.0,8.0,12.0,9.0,10.0,1651025019554506.0,3
1538,-27.0,-61.0,-37.0,-30.0,-13.0,-19.0,-11.0,-6.0,1651025019556460.0,3
1539,11.0,42.0,21.0,-2.0,-7.0,5.0,-11.0,-5.0,1651025019556460.0,3
1540,-12.0,-21.0,-42.0,-3.0,6.0,4.0,6.0,29.0,1651025019567938.0,3
1541,3.0,16.0,-4.0,-14.0,-16.0,-21.0,-8.0,-10.0,1651025019567938.0,3
1542,20.0,37.0,46.0,24.0,5.0,-13.0,-10.0,12.0,1651025019576922.0,3
1543,-15.0,-58.0,-60.0,-21.0,-13.0,10.0,31.0,10.0,1651025019576922.0,3
1544,0.0,14.0,-7.0,-2.0,10.0,18.0,-7.0,-7.0,1651025019591929.0,3
1545,4.0,-35.0,18.0,6.0,14.0,-13.0,-45.0,-40.0,1651025019591929.0,3
1546,10.0,13.0,-12.0,-3.0,-3.0,11.0,11.0,31.0,1651025019593883.0,3
1547,-5.0,23.0,7.0,10.0,5.0,-1.0,-35.0,-26.0,1651025019593883.0,3
1548,1.0,-16.0,31.0,-1.0,-11.0,-21.0,-1.0,-7.0,1651025019614861.0,3
1549,0.0,6.0,-15.0,-14.0,-7.0,2.0,20.0,1.0,1651025019614861.0,3
1550,0.0,-27.0,-5.0,0.0,1.0,-11.0,6.0,19.0,1651025019615797.0,3
1551,13.0,56.0,44.0,13.0,7.0,10.0,16.0,3.0,1651025019615797.0,3
1552,-1.0,-42.0,-45.0,-9.0,-3.0,-7.0,-10.0,-4.0,1651025019627833.0,3
1553,-12.0,-6.0,28.0,0.0,-12.0,-9.0,4.0,1.0,1651025019627833.0,3
1554,6.0,6.0,38.0,6.0,13.0,6.0,11.0,-40.0,1651025019636827.0,3
1555,-12.0,-70.0,-91.0,-13.0,2.0,7.0,23.0,46.0,1651025019636827.0,3
1556,12.0,49.0,32.0,8.0,1.0,1.0,46.0,11.0,1651025019651769.0,3
1557,-8.0,-29.0,-4.0,4.0,-2.0,-6.0,8.0,8.0,1651025019651769.0,3
1558,3.0,13.0,-37.0,-7.0,-8.0,4.0,22.0,4.0,1651025019653695.0,3
1559,-11.0,-23.0,35.0,8.0,6.0,11.0,-66.0,-71.0,1651025019653695.0,3
1560,-11.0,-48.0,-7.0,-7.0,-8.0,-30.0,-23.0,-21.0,1651025019674919.0,3
1561,7.0,-9.0,-22.0,-7.0,-9.0,-2.0,-1.0,0.0,1651025019674919.0,3
1562,13.0,61.0,47.0,31.0,26.0,23.0,3.0,19.0,1651025019675928.0,3
1563,-17.0,-63.0,8.0,-14.0,-11.0,-9.0,-7.0,-5.0,1651025019675928.0,3
1564,-3.0,12.0,30.0,15.0,5.0,4.0,-5.0,-6.0,1651025019696930.0,3
1565,-2.0,4.0,-34.0,-9.0,-9.0,-8.0,-2.0,15.0,1651025019696930.0,3
1566,12.0,13.0,-15.0,-2.0,-4.0,-8.0,-28.0,-11.0,1651025019698858.0,3
1567,7.0,17.0,-10.0,-10.0,4.0,7.0,25.0,22.0,1651025019698858.0,3
1568,-7.0,-10.0,-34.0,-6.0,-7.0,-6.0,19.0,-9.0,1651025019711888.0,3
1569,-6.0,5.0,45.0,23.0,3.0,-11.0,47.0,14.0,1651025019711888.0,3
1570,6.0,-2.0,-8.0,-10.0,-5.0,-7.0,-7.0,1.0,1651025019713817.0,3
1571,-13.0,-30.0,-33.0,-17.0,-6.0,16.0,-20.0,-3.0,1651025019713817.0,3
1572,1.0,-23.0,-14.0,5.0,4.0,23.0,9.0,18.0,1651025019734892.0,3
1573,21.0,73.0,21.0,10.0,12.0,19.0,15.0,19.0,1651025019734892.0,3
1574,-14.0,-87.0,-63.0,-21.0,-7.0,-1.0,-2.0,4.0,1651025019735890.0,3
1575,13.0,35.0,38.0,7.0,-8.0,-10.0,1.0,-3.0,1651025019735890.0,3
1576,23.0,80.0,32.0,21.0,5.0,-11.0,-16.0,-15.0,1651025019757413.0,3
1577,-7.0,-23.0,19.0,5.0,30.0,11.0,12.0,-8.0,1651025019757413.0,3
1578,-14.0,11.0,27.0,16.0,-3.0,3.0,-3.0,7.0,1651025019758938.0,3
1579,12.0,-31.0,14.0,-6.0,-5.0,-11.0,11.0,23.0,1651025019758938.0,3
1580,-34.0,12.0,-72.0,-38.0,-12.0,-3.0,-15.0,-36.0,1651025019771877.0,3
1581,13.0,42.0,3.0,-5.0,-15.0,-7.0,-34.0,-24.0,1651025019771877.0,3
1582,1.0,6.0,17.0,6.0,5.0,4.0,2.0,9.0,1651025019777861.0,3
1583,24.0,62.0,54.0,28.0,8.0,-1.0,31.0,16.0,1651025019777861.0,3
1584,-21.0,-45.0,-12.0,-8.0,-5.0,-20.0,11.0,4.0,1651025019794883.0,3
1585,-13.0,-75.0,-10.0,-15.0,-10.0,-9.0,-7.0,6.0,1651025019794883.0,3
1586,-2.0,27.0,-35.0,-5.0,3.0,19.0,4.0,-16.0,1651025019795838.0,3
1587,-9.0,-14.0,16.0,7.0,1.0,15.0,3.0,0.0,1651025019795838.0,3
1588,18.0,40.0,37.0,10.0,4.0,4.0,-4.0,1.0,1651025019816867.0,3
1589,-12.0,-51.0,-24.0,7.0,3.0,-6.0,-4.0,2.0,1651025019816867.0,3
1590,10.0,1.0,-22.0,-10.0,-6.0,-7.0,18.0,14.0,1651025019818911.0,3
1591,-14.0,-1.0,11.0,13.0,5.0,1.0,-12.0,-18.0,1651025019818911.0,3
1592,-7.0,-59.0,-29.0,-14.0,-5.0,-2.0,-11.0,-6.0,1651025019831867.0,3
1593,7.0,28.0,7.0,-2.0,-7.0,2.0,1.0,4.0,1651025019831867.0,3
1594,25.0,52.0,13.0,7.0,4.0,-9.0,8.0,18.0,1651025019837894.0,3
1595,7.0,7.0,8.0,11.0,11.0,2.0,7.0,-1.0,1651025019837894.0,3
1596,3.0,17.0,21.0,6.0,4.0,6.0,-10.0,-8.0,1651025019854903.0,3
1597,-11.0,-8.0,-1.0,-5.0,-9.0,-8.0,-12.0,-13.0,1651025019854903.0,3
1598,-17.0,-48.0,-12.0,-2.0,-10.0,-6.0,-16.0,-14.0,1651025019856927.0,3
1599,3.0,28.0,-13.0,-9.0,-5.0,-7.0,3.0,3.0,1651025019856927.0,3
1600,11.0,-1.0,42.0,17.0,16.0,2.0,9.0,12.0,1651025019877145.0,3
1601,6.0,39.0,-8.0,-3.0,0.0,17.0,4.0,0.0,1651025019877145.0,3
1602,13.0,5.0,-2.0,-7.0,0.0,3.0,5.0,-6.0,1651025019878158.0,3
1603,-49.0,-96.0,-70.0,-21.0,-8.0,-11.0,1.0,-2.0,1651025019878158.0,3
1604,7.0,28.0,44.0,23.0,3.0,4.0,1.0,8.0,1651025019891164.0,3
1605,-12.0,-41.0,-39.0,-18.0,-5.0,-5.0,-11.0,-36.0,1651025019891164.0,3
1606,-11.0,5.0,-13.0,-11.0,-7.0,-12.0,-3.0,2.0,1651025019898143.0,3
1607,22.0,38.0,22.0,4.0,6.0,14.0,8.0,5.0,1651025019898143.0,3
1608,-4.0,-19.0,1.0,12.0,4.0,4.0,6.0,5.0,1651025019914903.0,3
1609,5.0,37.0,30.0,1.0,0.0,4.0,-9.0,-4.0,1651025019914903.0,3
1610,-25.0,-93.0,-65.0,-20.0,-13.0,-11.0,-21.0,-20.0,1651025019915914.0,3
1611,8.0,38.0,-4.0,-9.0,-2.0,-5.0,12.0,6.0,1651025019915914.0,3
1612,-5.0,5.0,15.0,11.0,7.0,-3.0,-18.0,1.0,1651025019936909.0,3
1613,32.0,47.0,-1.0,7.0,1.0,17.0,-3.0,7.0,1651025019936909.0,3
1614,-20.0,67.0,39.0,-1.0,-4.0,-12.0,-2.0,-18.0,1651025019938865.0,3
1615,-9.0,-50.0,-19.0,6.0,3.0,6.0,16.0,0.0,1651025019938865.0,3
1616,-6.0,-21.0,-23.0,-22.0,-2.0,10.0,32.0,12.0,1651025019951817.0,3
1617,-10.0,-9.0,-27.0,-9.0,-8.0,-19.0,-30.0,-17.0,1651025019951817.0,3
1618,12.0,10.0,37.0,13.0,3.0,3.0,-10.0,3.0,1651025019957859.0,3
1619,4.0,24.0,-19.0,-7.0,-5.0,-18.0,-35.0,-15.0,1651025019957859.0,3
1620,7.0,30.0,40.0,26.0,19.0,10.0,6.0,-8.0,1651025019974947.0,3
1621,-8.0,-71.0,-45.0,-34.0,-13.0,5.0,11.0,34.0,1651025019974947.0,3
1622,5.0,17.0,-8.0,-3.0,6.0,0.0,2.0,6.0,1651025019975941.0,3
1623,-4.0,-24.0,9.0,3.0,-1.0,7.0,7.0,3.0,1651025019975941.0,3
1624,13.0,35.0,31.0,17.0,5.0,11.0,-10.0,-11.0,1651025019996939.0,3
1625,-4.0,-62.0,-11.0,8.0,5.0,-3.0,4.0,13.0,1651025019996939.0,3
1626,-7.0,-26.0,-27.0,-23.0,-13.0,-5.0,0.0,-1.0,1651025019998895.0,3
1627,12.0,38.0,17.0,8.0,9.0,-5.0,22.0,31.0,1651025019998895.0,3
1628,-14.0,-49.0,-49.0,-14.0,-7.0,-2.0,-12.0,-9.0,1651025020010942.0,3
1629,0.0,46.0,67.0,23.0,2.0,-11.0,-3.0,-15.0,1651025020010942.0,3
1630,-1.0,22.0,11.0,13.0,7.0,8.0,2.0,10.0,1651025020017977.0,3
1631,-16.0,-42.0,-24.0,-16.0,-9.0,-5.0,-1.0,-15.0,1651025020017977.0,3
1632,-13.0,-64.0,-35.0,-15.0,-7.0,-4.0,-7.0,0.0,1651025020034891.0,3
1633,7.0,41.0,8.0,4.0,-3.0,-12.0,-7.0,9.0,1651025020034891.0,3
1634,29.0,32.0,13.0,6.0,6.0,15.0,53.0,38.0,1651025020035861.0,3
1635,-11.0,19.0,8.0,-6.0,-2.0,8.0,2.0,-8.0,1651025020035861.0,3
1636,15.0,-4.0,-23.0,-20.0,-8.0,-10.0,8.0,23.0,1651025020056935.0,3
1637,-12.0,-20.0,-18.0,1.0,-7.0,-15.0,-15.0,-14.0,1651025020056935.0,3
1638,6.0,-16.0,31.0,22.0,7.0,3.0,-1.0,0.0,1651025020058917.0,3
1639,2.0,-6.0,-14.0,-12.0,-3.0,-17.0,1.0,34.0,1651025020058917.0,3
1640,22.0,42.0,25.0,11.0,11.0,34.0,27.0,10.0,1651025020071876.0,3
1641,-9.0,-9.0,28.0,17.0,6.0,8.0,4.0,11.0,1651025020071876.0,3
1642,-3.0,33.0,-27.0,0.0,-2.0,10.0,-23.0,-26.0,1651025020077872.0,3
1643,-17.0,-52.0,4.0,-19.0,-13.0,-12.0,-14.0,-24.0,1651025020077872.0,3
1644,-16.0,-1.0,13.0,3.0,-5.0,-22.0,-10.0,-22.0,1651025020094945.0,3
1645,10.0,1.0,-17.0,-7.0,4.0,4.0,13.0,25.0,1651025020094945.0,3
1646,10.0,41.0,30.0,15.0,3.0,-2.0,-11.0,-5.0,1651025020096897.0,3
1647,-14.0,-22.0,-9.0,20.0,10.0,1.0,-7.0,-11.0,1651025020096897.0,3
1648,-1.0,9.0,3.0,-23.0,-17.0,-6.0,-7.0,-9.0,1651025020116844.0,3
1649,11.0,44.0,34.0,18.0,8.0,6.0,10.0,-4.0,1651025020116844.0,3
1650,-19.0,-76.0,-39.0,-22.0,-8.0,-14.0,-6.0,-3.0,1651025020118838.0,3
1651,13.0,34.0,24.0,18.0,8.0,11.0,10.0,-6.0,1651025020118838.0,3
1652,10.0,1.0,-24.0,-12.0,-1.0,-4.0,-2.0,22.0,1651025020131807.0,3
1653,3.0,8.0,-23.0,-19.0,-5.0,0.0,-3.0,-8.0,1651025020131807.0,3
1654,-8.0,-25.0,20.0,7.0,2.0,-6.0,-3.0,-4.0,1651025020137828.0,3
1655,21.0,37.0,8.0,2.0,-9.0,-12.0,-14.0,2.0,1651025020137828.0,3
1656,-16.0,-6.0,-8.0,-1.0,16.0,28.0,8.0,-7.0,1651025020154830.0,3
1657,10.0,47.0,1.0,2.0,-3.0,-1.0,6.0,7.0,1651025020154830.0,3
1658,-43.0,-54.0,-54.0,-19.0,-6.0,6.0,0.0,-33.0,1651025020155832.0,3
1659,5.0,38.0,37.0,8.0,1.0,3.0,-6.0,3.0,1651025020155832.0,3
1660,-2.0,5.0,-10.0,3.0,-5.0,-15.0,-8.0,-18.0,1651025020176935.0,3
1661,0.0,-1.0,9.0,7.0,7.0,5.0,11.0,7.0,1651025020176935.0,3
1662,4.0,-8.0,-5.0,-7.0,-3.0,-1.0,-2.0,9.0,1651025020178903.0,3
1663,10.0,19.0,-3.0,-9.0,-1.0,-1.0,-2.0,-6.0,1651025020178903.0,3
1664,-1.0,-4.0,5.0,-1.0,-4.0,-2.0,-3.0,1.0,1651025020190938.0,3
1665,-15.0,-40.0,-8.0,-9.0,-1.0,1.0,-1.0,-12.0,1651025020190938.0,3
1666,11.0,10.0,28.0,30.0,7.0,-4.0,-5.0,6.0,1651025020199848.0,3
1667,-4.0,-10.0,-7.0,-6.0,-2.0,1.0,-1.0,-3.0,1651025020199848.0,3
1668,4.0,4.0,-3.0,-9.0,-5.0,-4.0,-4.0,7.0,1651025020221978.0,3
1669,-12.0,-23.0,-5.0,3.0,1.0,2.0,13.0,-3.0,1651025020221978.0,3
1670,11.0,23.0,6.0,-6.0,0.0,-2.0,-17.0,2.0,1651025020223915.0,3
1671,4.0,5.0,-10.0,-9.0,-5.0,2.0,6.0,5.0,1651025020223915.0,3
1672,-3.0,7.0,8.0,16.0,-1.0,-2.0,-4.0,-2.0,1651025020236881.0,3
1673,1.0,3.0,3.0,-10.0,7.0,0.0,2.0,-7.0,1651025020236881.0,3
1674,3.0,-4.0,3.0,14.0,3.0,1.0,2.0,2.0,1651025020238902.0,3
1675,0.0,-4.0,2.0,-12.0,0.0,3.0,-2.0,-1.0,1651025020238902.0,3
1676,-5.0,-7.0,-4.0,11.0,-11.0,-8.0,-5.0,-3.0,1651025020250870.0,3
1677,-5.0,-9.0,-6.0,3.0,-1.0,0.0,-1.0,-3.0,1651025020250870.0,3
1678,9.0,7.0,-3.0,-24.0,2.0,1.0,6.0,10.0,1651025020259930.0,3
1679,-2.0,-6.0,-12.0,8.0,-3.0,1.0,-1.0,-1.0,1651025020259930.0,3
1680,2.0,11.0,4.0,-5.0,8.0,0.0,-1.0,1.0,1651025020274318.0,3
1681,-2.0,-4.0,-1.0,-2.0,-4.0,0.0,0.0,-1.0,1651025020274318.0,3
1682,-1.0,0.0,6.0,3.0,-3.0,-2.0,-1.0,0.0,1651025020276307.0,3
1683,5.0,10.0,-3.0,-16.0,-8.0,2.0,-1.0,-1.0,1651025020276307.0,3
1684,0.0,5.0,4.0,-1.0,1.0,-3.0,-3.0,-2.0,1651025020297419.0,3
1685,-3.0,-9.0,-5.0,2.0,-1.0,0.0,-4.0,-3.0,1651025020297419.0,3
1686,1.0,-10.0,0.0,-5.0,-4.0,-2.0,-1.0,1.0,1651025020298894.0,3
1687,10.0,6.0,7.0,10.0,2.0,1.0,2.0,4.0,1651025020298894.0,3
1688,-3.0,42.0,3.0,11.0,7.0,-2.0,-2.0,-1.0,1651025020310849.0,3
1689,-18.0,-47.0,-12.0,-4.0,-9.0,-2.0,-4.0,-8.0,1651025020310849.0,3
1690,9.0,7.0,3.0,0.0,4.0,0.0,2.0,2.0,1651025020319817.0,3
1691,4.0,12.0,1.0,0.0,8.0,2.0,2.0,1.0,1651025020319817.0,3
1692,5.0,12.0,9.0,8.0,-8.0,-1.0,-1.0,4.0,1651025020335785.0,3
1693,6.0,23.0,0.0,-6.0,0.0,1.0,-1.0,0.0,1651025020335785.0,3
1694,10.0,24.0,9.0,-2.0,-9.0,0.0,8.0,4.0,1651025020340820.0,3
1695,-14.0,-61.0,-13.0,6.0,4.0,-1.0,-3.0,-5.0,1651025020340820.0,3
1696,-4.0,-26.0,-3.0,-10.0,-1.0,-6.0,-12.0,-6.0,1651025020356938.0,3
1697,3.0,-15.0,-2.0,1.0,-2.0,-2.0,-2.0,0.0,1651025020356938.0,3
1698,-9.0,9.0,-4.0,2.0,2.0,0.0,-1.0,0.0,1651025020358892.0,3
1699,6.0,29.0,2.0,3.0,2.0,3.0,8.0,4.0,1651025020358892.0,3
1700,-11.0,-69.0,-8.0,-3.0,-1.0,1.0,4.0,-2.0,1651025020370901.0,3
1701,4.0,12.0,3.0,2.0,-2.0,-2.0,-1.0,0.0,1651025020370901.0,3
1702,-2.0,-21.0,-5.0,0.0,1.0,0.0,2.0,1.0,1651025020379610.0,3
1703,0.0,21.0,3.0,-3.0,0.0,0.0,-4.0,-3.0,1651025020379610.0,3
1704,-4.0,6.0,-3.0,-2.0,-2.0,-2.0,1.0,-1.0,1651025020394307.0,3
1705,-9.0,4.0,-7.0,-3.0,0.0,-2.0,-2.0,-4.0,1651025020394307.0,3
1706,-25.0,-38.0,-12.0,-5.0,-4.0,-3.0,-6.0,-9.0,1651025020396328.0,3
1707,0.0,13.0,4.0,1.0,-1.0,-2.0,-3.0,-2.0,1651025020396328.0,3
1708,12.0,12.0,3.0,1.0,2.0,1.0,0.0,4.0,1651025020417272.0,3
1709,0.0,15.0,3.0,0.0,0.0,-1.0,2.0,1.0,1651025020417272.0,3
1710,6.0,6.0,6.0,3.0,2.0,0.0,2.0,3.0,1651025020418257.0,3
1711,-1.0,21.0,-2.0,-4.0,-3.0,-2.0,-5.0,-4.0,1651025020418257.0,3
1712,3.0,8.0,3.0,2.0,2.0,2.0,3.0,2.0,1651025020430278.0,3
1713,2.0,-20.0,-5.0,-2.0,0.0,0.0,-2.0,-2.0,1651025020430278.0,3
1714,-3.0,15.0,2.0,-3.0,-3.0,-2.0,-3.0,-3.0,1651025020440207.0,3
1715,-3.0,-20.0,-3.0,-2.0,-9.0,-2.0,0.0,-1.0,1651025020440207.0,3
1716,-14.0,-10.0,-5.0,-8.0,6.0,-4.0,-2.0,-6.0,1651025020454514.0,3
1717,2.0,-1.0,1.0,6.0,5.0,3.0,1.0,1.0,1651025020454514.0,3
1718,8.0,-11.0,2.0,10.0,0.0,0.0,-1.0,3.0,1651025020456468.0,3
1719,-1.0,12.0,5.0,5.0,3.0,-1.0,1.0,0.0,1651025020456468.0,3
1720,6.0,8.0,-1.0,-3.0,-5.0,-1.0,0.0,1.0,1651025020477468.0,3
1721,4.0,23.0,6.0,-3.0,-3.0,-2.0,-1.0,3.0,1651025020477468.0,3
1722,0.0,-11.0,-8.0,-8.0,0.0,0.0,-1.0,-2.0,1651025020478438.0,3
1723,9.0,-11.0,-4.0,-2.0,-3.0,0.0,1.0,4.0,1651025020478438.0,3
1724,0.0,16.0,4.0,1.0,-1.0,-2.0,-1.0,-2.0,1651025020490400.0,3
1725,7.0,24.0,5.0,0.0,1.0,0.0,1.0,2.0,1651025020490400.0,3
1726,-3.0,10.0,3.0,1.0,0.0,1.0,1.0,3.0,1651025020499376.0,3
1727,-11.0,-33.0,-10.0,1.0,2.0,-1.0,-3.0,-3.0,1651025020499376.0,3
1728,4.0,-7.0,4.0,3.0,0.0,-1.0,-1.0,1.0,1651025020514199.0,3
1729,-6.0,17.0,-7.0,-5.0,-3.0,-4.0,-3.0,-5.0,1651025020514199.0,3
1730,6.0,38.0,26.0,-2.0,-2.0,-2.0,0.0,2.0,1651025020520889.0,3
1731,-6.0,-27.0,-32.0,-3.0,1.0,0.0,0.0,-1.0,1651025020520889.0,3
1732,-2.0,1.0,-3.0,-3.0,-1.0,0.0,2.0,0.0,1651025020536840.0,3
1733,-2.0,-11.0,0.0,1.0,-1.0,1.0,1.0,2.0,1651025020536840.0,3
1734,-1.0,-37.0,-1.0,5.0,5.0,-1.0,-3.0,-2.0,1651025020538799.0,3
1735,0.0,28.0,19.0,3.0,0.0,1.0,-1.0,-1.0,1651025020538799.0,3
1736,2.0,-4.0,-8.0,2.0,0.0,0.0,2.0,1.0,1651025020550740.0,3
1737,3.0,4.0,-1.0,-4.0,-2.0,0.0,-1.0,1.0,1651025020550740.0,3
1738,-2.0,-21.0,-9.0,-5.0,-2.0,0.0,0.0,0.0,1651025020566763.0,3
1739,0.0,-25.0,-2.0,-4.0,-1.0,-2.0,-1.0,-1.0,1651025020566763.0,3
1740,4.0,13.0,1.0,-1.0,-3.0,1.0,0.0,0.0,1651025020574745.0,3
1741,-7.0,-23.0,-1.0,8.0,1.0,-1.0,-1.0,-2.0,1651025020574745.0,3
1742,2.0,21.0,-5.0,-4.0,-4.0,-3.0,-2.0,-3.0,1651025020575703.0,3
1743,-5.0,-12.0,-1.0,2.0,-1.0,0.0,-2.0,-3.0,1651025020575703.0,3
1744,-3.0,-9.0,0.0,-7.0,-5.0,0.0,0.0,0.0,1651025020596888.0,3
1745,8.0,11.0,-1.0,-3.0,4.0,0.0,-2.0,1.0,1651025020596888.0,3
1746,5.0,31.0,2.0,5.0,0.0,-1.0,0.0,1.0,1651025020598820.0,3
1747,3.0,21.0,2.0,-2.0,-2.0,1.0,1.0,2.0,1651025020598820.0,3
1748,-9.0,-34.0,-5.0,1.0,-3.0,-2.0,-2.0,-3.0,1651025020619791.0,3
1749,1.0,9.0,4.0,2.0,-1.0,1.0,-1.0,-3.0,1651025020619791.0,3
1750,-2.0,-6.0,-8.0,-8.0,-3.0,-2.0,-2.0,-2.0,1651025020620761.0,3
1751,3.0,5.0,0.0,-6.0,1.0,-1.0,1.0,0.0,1651025020620761.0,3
1752,-2.0,-12.0,-2.0,2.0,1.0,-1.0,0.0,2.0,1651025020634792.0,3
1753,2.0,2.0,6.0,1.0,-1.0,-2.0,-1.0,0.0,1651025020634792.0,3
1754,-3.0,-18.0,-11.0,-6.0,-1.0,0.0,-1.0,-2.0,1651025020635730.0,3
1755,-5.0,-6.0,2.0,3.0,4.0,1.0,0.0,-1.0,1651025020635730.0,3
1756,6.0,0.0,1.0,0.0,1.0,0.0,-2.0,0.0,1651025020657438.0,3
1757,-4.0,-4.0,-5.0,-4.0,-4.0,-2.0,-1.0,-3.0,1651025020657438.0,3
1758,-4.0,-10.0,0.0,3.0,0.0,1.0,3.0,1.0,1651025020658897.0,3
1759,-1.0,19.0,4.0,-4.0,-4.0,-2.0,-3.0,-2.0,1651025020658897.0,3
1760,-13.0,-21.0,-7.0,-2.0,2.0,1.0,-1.0,-3.0,1651025020679968.0,3
1761,-5.0,-2.0,2.0,0.0,-1.0,0.0,1.0,-1.0,1651025020679968.0,3
1762,2.0,-15.0,-6.0,-1.0,-2.0,-1.0,0.0,1.0,1651025020680977.0,3
1763,2.0,-11.0,0.0,1.0,-1.0,1.0,2.0,1.0,1651025020680977.0,3
1764,3.0,-7.0,0.0,3.0,-1.0,0.0,2.0,3.0,1651025020694085.0,3
1765,-7.0,27.0,-3.0,-6.0,1.0,1.0,-1.0,-2.0,1651025020694085.0,3
1766,2.0,8.0,4.0,0.0,-3.0,2.0,-2.0,-1.0,1651025020696095.0,3
1767,-1.0,-13.0,1.0,4.0,3.0,0.0,1.0,-1.0,1651025020696095.0,3
1768,15.0,40.0,10.0,-2.0,-5.0,1.0,2.0,2.0,1651025020717010.0,3
1769,-8.0,-53.0,-10.0,-3.0,-2.0,-2.0,-4.0,-4.0,1651025020717010.0,3
1770,0.0,11.0,3.0,2.0,1.0,-1.0,0.0,0.0,1651025020718954.0,3
1771,-2.0,18.0,-2.0,-1.0,-3.0,-1.0,-1.0,-1.0,1651025020718954.0,3
1772,1.0,3.0,0.0,0.0,-1.0,-1.0,0.0,-1.0,1651025020739024.0,3
1773,5.0,4.0,-1.0,-5.0,-2.0,0.0,2.0,2.0,1651025020739024.0,3
1774,-6.0,4.0,-2.0,1.0,0.0,-1.0,-3.0,-5.0,1651025020740991.0,3
1775,9.0,4.0,7.0,4.0,1.0,0.0,-1.0,2.0,1651025020740991.0,3
1776,-13.0,-18.0,-7.0,-4.0,-2.0,-3.0,-2.0,-5.0,1651025020752959.0,3
1777,0.0,-7.0,-1.0,1.0,-2.0,-1.0,0.0,2.0,1651025020752959.0,3
1778,-1.0,-3.0,-1.0,1.0,0.0,0.0,2.0,1.0,1651025020761936.0,3
1779,-1.0,-18.0,-4.0,0.0,1.0,1.0,2.0,2.0,1651025020761936.0,3
1780,6.0,36.0,1.0,-4.0,-2.0,-3.0,-4.0,-3.0,1651025020777395.0,3
1781,-9.0,8.0,3.0,-7.0,-8.0,-2.0,-2.0,-4.0,1651025020777395.0,3
1782,-8.0,-40.0,-6.0,9.0,19.0,1.0,-1.0,-2.0,1651025020778870.0,3
1783,-1.0,-15.0,-1.0,-1.0,-3.0,1.0,0.0,1.0,1651025020778870.0,3
1784,1.0,43.0,7.0,4.0,0.0,-2.0,-1.0,0.0,1651025020799881.0,3
1785,4.0,19.0,1.0,-3.0,-3.0,-2.0,-2.0,-1.0,1651025020799881.0,3
1786,3.0,5.0,-3.0,-9.0,-7.0,-2.0,0.0,1.0,1651025020800812.0,3
1787,-2.0,-13.0,-6.0,-4.0,0.0,0.0,-1.0,-3.0,1651025020800812.0,3
1788,1.0,12.0,3.0,1.0,-1.0,3.0,1.0,0.0,1651025020813824.0,3
1789,-7.0,-7.0,7.0,9.0,6.0,0.0,1.0,-2.0,1651025020813824.0,3
1790,-9.0,-26.0,-3.0,-2.0,-4.0,-2.0,-3.0,-1.0,1651025020820869.0,3
1791,-2.0,7.0,-1.0,-1.0,1.0,-1.0,-2.0,-2.0,1651025020820869.0,3
1792,4.0,-2.0,-1.0,1.0,-1.0,3.0,1.0,3.0,1651025020836973.0,3
1793,1.0,1.0,-5.0,-4.0,-1.0,1.0,-2.0,1.0,1651025020836973.0,3
1794,4.0,15.0,2.0,-2.0,0.0,0.0,1.0,0.0,1651025020838930.0,3
1795,-3.0,4.0,1.0,-1.0,0.0,-1.0,-1.0,-1.0,1651025020838930.0,3
1796,-4.0,-20.0,-3.0,-10.0,-4.0,-2.0,0.0,-1.0,1651025020859918.0,3
1797,0.0,-15.0,-2.0,2.0,2.0,1.0,1.0,1.0,1651025020859918.0,3
1798,4.0,20.0,1.0,0.0,-2.0,1.0,1.0,3.0,1651025020860847.0,3
1799,-1.0,14.0,0.0,2.0,0.0,-2.0,-1.0,-1.0,1651025020860847.0,3
1800,-3.0,9.0,2.0,2.0,4.0,0.0,1.0,0.0,1651025020874259.0,3
1801,1.0,-12.0,-5.0,-4.0,-5.0,-2.0,0.0,-2.0,1651025020874259.0,3
1802,-2.0,7.0,-2.0,-6.0,-8.0,-1.0,-1.0,-2.0,1651025020880885.0,3
1803,-3.0,0.0,-3.0,-5.0,-2.0,-1.0,-2.0,-2.0,1651025020880885.0,3
1804,-2.0,-6.0,5.0,7.0,2.0,-1.0,-1.0,0.0,1651025020897424.0,3
1805,1.0,-9.0,-2.0,1.0,1.0,1.0,-1.0,0.0,1651025020897424.0,3
1806,-1.0,9.0,1.0,-1.0,-1.0,-1.0,-1.0,-2.0,1651025020898872.0,3
1807,2.0,-3.0,1.0,0.0,-1.0,0.0,0.0,0.0,1651025020898872.0,3
1808,-6.0,-24.0,-8.0,-2.0,1.0,0.0,-1.0,-3.0,1651025020927413.0,3
1809,3.0,0.0,0.0,2.0,2.0,1.0,1.0,1.0,1651025020927413.0,3
1810,2.0,2.0,4.0,9.0,1.0,0.0,-1.0,0.0,1651025020928871.0,3
1811,-4.0,0.0,-1.0,-2.0,-2.0,-2.0,0.0,-2.0,1651025020928871.0,3
1812,0.0,-11.0,-2.0,2.0,-1.0,0.0,-1.0,0.0,1651025020933856.0,3
1813,-2.0,3.0,-2.0,0.0,1.0,-1.0,1.0,-1.0,1651025020933856.0,3
1814,2.0,5.0,-1.0,-4.0,-2.0,0.0,0.0,1.0,1651025020940865.0,3
1815,-1.0,-3.0,-1.0,-1.0,-1.0,-2.0,-1.0,-1.0,1651025020940865.0,3
1816,1.0,1.0,1.0,-1.0,-2.0,-2.0,0.0,0.0,1651025020964500.0,3
1817,0.0,-5.0,-3.0,-3.0,0.0,-1.0,-1.0,0.0,1651025020964500.0,3
1818,-1.0,-4.0,0.0,0.0,-1.0,-1.0,-1.0,-1.0,1651025020966455.0,3
1819,3.0,9.0,2.0,1.0,2.0,0.0,-1.0,1.0,1651025020966455.0,3
1820,0.0,-29.0,-6.0,0.0,0.0,1.0,-1.0,0.0,1651025020979204.0,3
1821,1.0,10.0,0.0,1.0,-2.0,0.0,1.0,0.0,1651025020979204.0,3
1822,1.0,3.0,4.0,1.0,1.0,1.0,0.0,1.0,1651025020981192.0,3
1823,6.0,-10.0,-7.0,-3.0,0.0,1.0,0.0,0.0,1651025020981192.0,3
1824,-1.0,-1.0,1.0,-2.0,-2.0,-2.0,1.0,1.0,1651025020994186.0,3
1825,-10.0,-48.0,-11.0,-3.0,-2.0,-1.0,-3.0,-3.0,1651025020994186.0,3
1826,0.0,7.0,-1.0,-7.0,-4.0,0.0,0.0,-2.0,1651025021000712.0,3
1827,6.0,10.0,9.0,12.0,0.0,1.0,3.0,4.0,1651025021000712.0,3
1828,-3.0,0.0,2.0,-4.0,-3.0,-1.0,-1.0,0.0,1651025021016672.0,3
1829,1.0,-1.0,-3.0,5.0,2.0,0.0,-1.0,0.0,1651025021016672.0,3
1830,0.0,13.0,-2.0,3.0,4.0,-1.0,0.0,-1.0,1651025021018598.0,3
1831,-6.0,-14.0,-7.0,-6.0,0.0,0.0,-1.0,-1.0,1651025021018598.0,3
1832,3.0,4.0,-1.0,-5.0,-3.0,-2.0,-1.0,0.0,1651025021039496.0,3
1833,2.0,10.0,4.0,7.0,5.0,3.0,1.0,1.0,1651025021039496.0,3
1834,-3.0,-4.0,-1.0,-4.0,-3.0,-1.0,-2.0,0.0,1651025021041423.0,3
1835,-1.0,8.0,1.0,1.0,0.0,-1.0,0.0,-3.0,1651025021041423.0,3
1836,-3.0,0.0,-2.0,0.0,-1.0,0.0,-1.0,-3.0,1651025021053422.0,3
1837,2.0,15.0,1.0,-7.0,-4.0,-1.0,0.0,0.0,1651025021053422.0,3
1838,-5.0,-21.0,-5.0,-4.0,-2.0,0.0,-2.0,-2.0,1651025021060440.0,3
1839,-4.0,-13.0,0.0,-1.0,0.0,-1.0,1.0,0.0,1651025021060440.0,3
1840,10.0,46.0,7.0,0.0,0.0,1.0,0.0,1.0,1651025021076961.0,3
1841,-17.0,-57.0,-13.0,-5.0,-3.0,-4.0,-2.0,-5.0,1651025021076961.0,3
1842,4.0,8.0,1.0,3.0,1.0,0.0,0.0,2.0,1651025021078890.0,3
1843,-2.0,-25.0,-4.0,-3.0,-1.0,-1.0,-1.0,1.0,1651025021078890.0,3
1844,0.0,20.0,1.0,2.0,1.0,1.0,-1.0,-1.0,1651025021099815.0,3
1845,4.0,16.0,4.0,3.0,-3.0,-1.0,2.0,1.0,1651025021099815.0,3
1846,1.0,-1.0,-3.0,-1.0,-2.0,-3.0,1.0,0.0,1651025021100748.0,3
1847,-1.0,8.0,-3.0,0.0,0.0,-1.0,-2.0,-2.0,1651025021100748.0,3
1848,-5.0,-14.0,-1.0,3.0,3.0,0.0,0.0,-4.0,1651025021112716.0,3
1849,3.0,10.0,2.0,-3.0,-1.0,0.0,0.0,0.0,1651025021112716.0,3
1850,1.0,9.0,0.0,-6.0,-3.0,0.0,0.0,-1.0,1651025021121759.0,3
1851,4.0,30.0,5.0,4.0,-1.0,-1.0,0.0,0.0,1651025021121759.0,3
1852,-5.0,-45.0,-8.0,-4.0,-1.0,-1.0,-2.0,0.0,1651025021137413.0,3
1853,3.0,8.0,-2.0,-7.0,-1.0,0.0,0.0,-1.0,1651025021137413.0,3
1854,-4.0,5.0,7.0,15.0,6.0,1.0,-1.0,-2.0,1651025021138895.0,3
1855,-2.0,3.0,-3.0,-2.0,1.0,-1.0,0.0,-2.0,1651025021138895.0,3
1856,8.0,12.0,1.0,0.0,-2.0,-1.0,0.0,2.0,1651025021159874.0,3
1857,1.0,49.0,6.0,-3.0,-1.0,-3.0,-3.0,-1.0,1651025021159874.0,3
1858,-11.0,-36.0,-11.0,-7.0,-6.0,0.0,-2.0,-2.0,1651025021160810.0,3
1859,-3.0,-10.0,1.0,-1.0,0.0,0.0,-1.0,0.0,1651025021160810.0,3
1860,1.0,3.0,0.0,1.0,0.0,0.0,-1.0,-1.0,1651025021172846.0,3
1861,3.0,-3.0,2.0,1.0,-1.0,0.0,1.0,0.0,1651025021172846.0,3
1862,2.0,3.0,1.0,1.0,0.0,-1.0,1.0,1.0,1651025021181774.0,3
1863,-8.0,1.0,1.0,0.0,-2.0,-1.0,0.0,-1.0,1651025021181774.0,3
1864,-2.0,-4.0,-1.0,-1.0,0.0,0.0,0.0,1.0,1651025021196777.0,3
1865,-4.0,-17.0,-3.0,1.0,-1.0,-2.0,-1.0,-1.0,1651025021196777.0,3
1866,-2.0,-2.0,-2.0,-1.0,1.0,0.0,-1.0,-1.0,1651025021202698.0,3
1867,-1.0,-17.0,-5.0,-4.0,-2.0,1.0,-2.0,0.0,1651025021202698.0,3
1868,3.0,-5.0,1.0,-5.0,-1.0,-1.0,-1.0,0.0,1651025021219714.0,3
1869,-4.0,-9.0,-1.0,6.0,2.0,0.0,1.0,0.0,1651025021219714.0,3
1870,6.0,-13.0,3.0,0.0,1.0,-1.0,1.0,2.0,1651025021220672.0,3
